MA2-00002.tif Azm= 0.00
2-Theta Angle (Degrees)
Intensity
       2500
 1.0023400e+00   7.9819425e+03
 1.0070200e+00   7.9002803e+03
 1.0117000e+00   7.9111833e+03
 1.0163800e+00   7.9054406e+03
 1.0210600e+00   7.8141733e+03
 1.0257400e+00   7.8240934e+03
 1.0304199e+00   7.8080387e+03
 1.0351000e+00   7.7391122e+03
 1.0397800e+00   7.7388898e+03
 1.0444601e+00   7.7135499e+03
 1.0491400e+00   7.6834010e+03
 1.0538200e+00   7.7325937e+03
 1.0585001e+00   7.6309981e+03
 1.0631800e+00   7.6587663e+03
 1.0678600e+00   7.6151738e+03
 1.0725400e+00   7.5911619e+03
 1.0772200e+00   7.5521647e+03
 1.0819000e+00   7.5316861e+03
 1.0865800e+00   7.5271831e+03
 1.0912600e+00   7.4962114e+03
 1.0959400e+00   7.4444641e+03
 1.1006200e+00   7.4581405e+03
 1.1052999e+00   7.4268052e+03
 1.1099800e+00   7.4086973e+03
 1.1146600e+00   7.4103956e+03
 1.1193399e+00   7.4144371e+03
 1.1240200e+00   7.3862273e+03
 1.1287000e+00   7.3698783e+03
 1.1333801e+00   7.3572404e+03
 1.1380600e+00   7.3102280e+03
 1.1427400e+00   7.3174714e+03
 1.1474200e+00   7.2901394e+03
 1.1521000e+00   7.3124326e+03
 1.1567800e+00   7.2885187e+03
 1.1614600e+00   7.2342629e+03
 1.1661400e+00   7.2653766e+03
 1.1708200e+00   7.2592984e+03
 1.1755000e+00   7.2174339e+03
 1.1801800e+00   7.2241152e+03
 1.1848600e+00   7.2057910e+03
 1.1895400e+00   7.2144731e+03
 1.1942199e+00   7.2457719e+03
 1.1989000e+00   7.1801079e+03
 1.2035800e+00   7.1893426e+03
 1.2082601e+00   7.1827399e+03
 1.2129400e+00   7.1615941e+03
 1.2176200e+00   7.1681024e+03
 1.2223001e+00   7.1986140e+03
 1.2269800e+00   7.1859184e+03
 1.2316600e+00   7.1510984e+03
 1.2363400e+00   7.1741611e+03
 1.2410200e+00   7.1462508e+03
 1.2457000e+00   7.1699223e+03
 1.2503800e+00   7.1544591e+03
 1.2550600e+00   7.1766725e+03
 1.2597400e+00   7.1542385e+03
 1.2644200e+00   7.1233067e+03
 1.2691000e+00   7.1302200e+03
 1.2737800e+00   7.1626636e+03
 1.2784600e+00   7.1508898e+03
 1.2831399e+00   7.1241007e+03
 1.2878200e+00   7.1287782e+03
 1.2925000e+00   7.1444375e+03
 1.2971801e+00   7.1263813e+03
 1.3018600e+00   7.1731063e+03
 1.3065400e+00   7.1390810e+03
 1.3112200e+00   7.1415447e+03
 1.3159000e+00   7.1649519e+03
 1.3205800e+00   7.1923491e+03
 1.3252600e+00   7.2103283e+03
 1.3299400e+00   7.1902518e+03
 1.3346200e+00   7.2145921e+03
 1.3393000e+00   7.2013002e+03
 1.3439800e+00   7.1761167e+03
 1.3486600e+00   7.2059984e+03
 1.3533400e+00   7.1991574e+03
 1.3580199e+00   7.1875805e+03
 1.3627000e+00   7.1864671e+03
 1.3673800e+00   7.2015016e+03
 1.3720599e+00   7.1757339e+03
 1.3767400e+00   7.2363725e+03
 1.3814200e+00   7.2388543e+03
 1.3861001e+00   7.2583708e+03
 1.3907800e+00   7.2706642e+03
 1.3954600e+00   7.2737045e+03
 1.4001400e+00   7.3053642e+03
 1.4048200e+00   7.3187260e+03
 1.4095000e+00   7.3040457e+03
 1.4141800e+00   7.3416890e+03
 1.4188600e+00   7.3450742e+03
 1.4235400e+00   7.3603919e+03
 1.4282200e+00   7.3956079e+03
 1.4329000e+00   7.3936434e+03
 1.4375800e+00   7.4166370e+03
 1.4422600e+00   7.4572662e+03
 1.4469399e+00   7.4821374e+03
 1.4516200e+00   7.5286254e+03
 1.4563000e+00   7.5129677e+03
 1.4609801e+00   7.5262838e+03
 1.4656600e+00   7.5832913e+03
 1.4703400e+00   7.5759678e+03
 1.4750201e+00   7.6029279e+03
 1.4797000e+00   7.6715938e+03
 1.4843800e+00   7.6503104e+03
 1.4890600e+00   7.6729779e+03
 1.4937400e+00   7.6725384e+03
 1.4984200e+00   7.7151210e+03
 1.5031000e+00   7.7340550e+03
 1.5077800e+00   7.7540559e+03
 1.5124600e+00   7.7340662e+03
 1.5171400e+00   7.7625780e+03
 1.5218199e+00   7.7659943e+03
 1.5265000e+00   7.7467913e+03
 1.5311800e+00   7.7624321e+03
 1.5358599e+00   7.7649511e+03
 1.5405400e+00   7.7584499e+03
 1.5452200e+00   7.7498429e+03
 1.5499001e+00   7.7622854e+03
 1.5545800e+00   7.7538499e+03
 1.5592600e+00   7.7144922e+03
 1.5639400e+00   7.7034487e+03
 1.5686200e+00   7.7316424e+03
 1.5733000e+00   7.7076006e+03
 1.5779800e+00   7.7438469e+03
 1.5826600e+00   7.7090160e+03
 1.5873400e+00   7.6941649e+03
 1.5920200e+00   7.6748930e+03
 1.5967000e+00   7.6872650e+03
 1.6013800e+00   7.6661617e+03
 1.6060600e+00   7.6826644e+03
 1.6107399e+00   7.6792207e+03
 1.6154200e+00   7.6854527e+03
 1.6201000e+00   7.7000747e+03
 1.6247801e+00   7.6753726e+03
 1.6294600e+00   7.6807410e+03
 1.6341400e+00   7.6747755e+03
 1.6388201e+00   7.6894024e+03
 1.6435000e+00   7.6731074e+03
 1.6481800e+00   7.6641285e+03
 1.6528600e+00   7.6957419e+03
 1.6575400e+00   7.6867794e+03
 1.6622200e+00   7.7071822e+03
 1.6669000e+00   7.6713562e+03
 1.6715800e+00   7.6949438e+03
 1.6762600e+00   7.6985837e+03
 1.6809400e+00   7.6989340e+03
 1.6856200e+00   7.6937467e+03
 1.6903000e+00   7.7099434e+03
 1.6949800e+00   7.7187291e+03
 1.6996599e+00   7.7304365e+03
 1.7043400e+00   7.7220805e+03
 1.7090200e+00   7.7344892e+03
 1.7137001e+00   7.7398999e+03
 1.7183800e+00   7.7085665e+03
 1.7230600e+00   7.7661975e+03
 1.7277400e+00   7.7158324e+03
 1.7324200e+00   7.7404683e+03
 1.7371000e+00   7.7666903e+03
 1.7417800e+00   7.7486908e+03
 1.7464600e+00   7.7607378e+03
 1.7511400e+00   7.7496515e+03
 1.7558200e+00   7.7849601e+03
 1.7605000e+00   7.7896474e+03
 1.7651800e+00   7.7753947e+03
 1.7698600e+00   7.7987517e+03
 1.7745399e+00   7.7952474e+03
 1.7792200e+00   7.8310045e+03
 1.7839000e+00   7.8518554e+03
 1.7885799e+00   7.8346154e+03
 1.7932600e+00   7.8312762e+03
 1.7979400e+00   7.8696733e+03
 1.8026201e+00   7.8647562e+03
 1.8073000e+00   7.8817824e+03
 1.8119800e+00   7.9127827e+03
 1.8166600e+00   7.8905482e+03
 1.8213400e+00   7.9428695e+03
 1.8260200e+00   7.9607525e+03
 1.8307000e+00   7.9594033e+03
 1.8353800e+00   8.0067287e+03
 1.8400600e+00   8.0153697e+03
 1.8447400e+00   8.0230232e+03
 1.8494200e+00   8.0402922e+03
 1.8541000e+00   8.0610681e+03
 1.8587800e+00   8.0685568e+03
 1.8634599e+00   8.1054582e+03
 1.8681400e+00   8.1061367e+03
 1.8728200e+00   8.1535313e+03
 1.8775001e+00   8.1472063e+03
 1.8821800e+00   8.1851804e+03
 1.8868600e+00   8.2060473e+03
 1.8915401e+00   8.2334702e+03
 1.8962200e+00   8.2501513e+03
 1.9009000e+00   8.2417907e+03
 1.9055800e+00   8.2716488e+03
 1.9102600e+00   8.3314700e+03
 1.9149400e+00   8.3106294e+03
 1.9196200e+00   8.3691350e+03
 1.9243000e+00   8.3963029e+03
 1.9289800e+00   8.4453028e+03
 1.9336600e+00   8.4284178e+03
 1.9383399e+00   8.4360803e+03
 1.9430200e+00   8.4752816e+03
 1.9477000e+00   8.5002747e+03
 1.9523799e+00   8.5277576e+03
 1.9570600e+00   8.5128115e+03
 1.9617400e+00   8.6339633e+03
 1.9664201e+00   8.5858609e+03
 1.9711000e+00   8.7978299e+03
 1.9757800e+00   8.6691973e+03
 1.9804600e+00   8.7685700e+03
 1.9851400e+00   8.6947091e+03
 1.9898200e+00   8.7244226e+03
 1.9945000e+00   8.7386830e+03
 1.9991800e+00   8.7412773e+03
 2.0038600e+00   8.7443361e+03
 2.0085399e+00   8.7948867e+03
 2.0132201e+00   8.8307718e+03
 2.0179000e+00   8.8186345e+03
 2.0225799e+00   8.8521490e+03
 2.0272601e+00   8.8716414e+03
 2.0319400e+00   8.8986349e+03
 2.0366199e+00   8.9058246e+03
 2.0413001e+00   8.9498144e+03
 2.0459800e+00   8.9652460e+03
 2.0506599e+00   8.9850951e+03
 2.0553401e+00   8.9988884e+03
 2.0600200e+00   9.0301342e+03
 2.0646999e+00   9.0597450e+03
 2.0693800e+00   9.0647887e+03
 2.0740600e+00   9.1085191e+03
 2.0787399e+00   9.1013413e+03
 2.0834200e+00   9.1534862e+03
 2.0881000e+00   9.1632882e+03
 2.0927801e+00   9.2229225e+03
 2.0974600e+00   9.2816928e+03
 2.1021399e+00   9.3289099e+03
 2.1068201e+00   9.3477778e+03
 2.1115000e+00   9.3824524e+03
 2.1161799e+00   9.3969215e+03
 2.1208601e+00   9.4126730e+03
 2.1255400e+00   9.4418993e+03
 2.1302199e+00   9.4438699e+03
 2.1349001e+00   9.4866584e+03
 2.1395800e+00   9.5006785e+03
 2.1442599e+00   9.5444240e+03
 2.1489401e+00   9.5935332e+03
 2.1536200e+00   9.6280315e+03
 2.1582999e+00   9.6871546e+03
 2.1629801e+00   9.7380513e+03
 2.1676600e+00   9.8162154e+03
 2.1723399e+00   9.8899226e+03
 2.1770201e+00   9.9700914e+03
 2.1817000e+00   1.0079951e+04
 2.1863799e+00   1.0214450e+04
 2.1910601e+00   1.0356622e+04
 2.1957400e+00   1.0537274e+04
 2.2004199e+00   1.0822221e+04
 2.2051001e+00   1.1196935e+04
 2.2097800e+00   1.1723384e+04
 2.2144599e+00   1.2433269e+04
 2.2191401e+00   1.3604616e+04
 2.2238200e+00   1.5036652e+04
 2.2284999e+00   1.7133686e+04
 2.2331800e+00   1.9652677e+04
 2.2378600e+00   2.2574364e+04
 2.2425399e+00   2.5124200e+04
 2.2472200e+00   2.7131150e+04
 2.2519000e+00   2.7831310e+04
 2.2565801e+00   2.7300049e+04
 2.2612600e+00   2.5625068e+04
 2.2659400e+00   2.2969082e+04
 2.2706201e+00   2.0146008e+04
 2.2753000e+00   1.7569890e+04
 2.2799799e+00   1.5549423e+04
 2.2846601e+00   1.3945162e+04
 2.2893400e+00   1.2856331e+04
 2.2940199e+00   1.2128825e+04
 2.2987001e+00   1.1632521e+04
 2.3033800e+00   1.1384020e+04
 2.3080599e+00   1.1147564e+04
 2.3127401e+00   1.1030316e+04
 2.3174200e+00   1.0933779e+04
 2.3220999e+00   1.0896213e+04
 2.3267801e+00   1.0857956e+04
 2.3314600e+00   1.0826218e+04
 2.3361399e+00   1.0819427e+04
 2.3408201e+00   1.0831374e+04
 2.3455000e+00   1.0852801e+04
 2.3501799e+00   1.0849597e+04
 2.3548601e+00   1.0865847e+04
 2.3595400e+00   1.0914014e+04
 2.3642199e+00   1.0908817e+04
 2.3689001e+00   1.0954360e+04
 2.3735800e+00   1.0956918e+04
 2.3782599e+00   1.0996393e+04
 2.3829401e+00   1.1032322e+04
 2.3876200e+00   1.1070413e+04
 2.3922999e+00   1.1089594e+04
 2.3969800e+00   1.1110163e+04
 2.4016600e+00   1.1150400e+04
 2.4063399e+00   1.1163558e+04
 2.4110200e+00   1.1239178e+04
 2.4157000e+00   1.1231961e+04
 2.4203801e+00   1.1292945e+04
 2.4250600e+00   1.1311189e+04
 2.4297400e+00   1.1337855e+04
 2.4344201e+00   1.1372774e+04
 2.4391000e+00   1.1444835e+04
 2.4437799e+00   1.1441751e+04
 2.4484601e+00   1.1495595e+04
 2.4531400e+00   1.1558728e+04
 2.4578199e+00   1.1582601e+04
 2.4625001e+00   1.1625954e+04
 2.4671800e+00   1.1642483e+04
 2.4718599e+00   1.1692481e+04
 2.4765401e+00   1.1739350e+04
 2.4812200e+00   1.1763337e+04
 2.4858999e+00   1.1789923e+04
 2.4905801e+00   1.1866079e+04
 2.4952600e+00   1.1878019e+04
 2.4999399e+00   1.1901156e+04
 2.5046201e+00   1.1968145e+04
 2.5093000e+00   1.1999712e+04
 2.5139799e+00   1.2022449e+04
 2.5186601e+00   1.2057774e+04
 2.5233400e+00   1.2084197e+04
 2.5280199e+00   1.2156603e+04
 2.5327001e+00   1.2164763e+04
 2.5373800e+00   1.2212439e+04
 2.5420599e+00   1.2238357e+04
 2.5467401e+00   1.2268275e+04
 2.5514200e+00   1.2307136e+04
 2.5560999e+00   1.2349717e+04
 2.5607800e+00   1.2376213e+04
 2.5654600e+00   1.2407309e+04
 2.5701399e+00   1.2448531e+04
 2.5748200e+00   1.2505338e+04
 2.5795000e+00   1.2520133e+04
 2.5841801e+00   1.2540032e+04
 2.5888600e+00   1.2582813e+04
 2.5935400e+00   1.2614380e+04
 2.5982201e+00   1.2658311e+04
 2.6029000e+00   1.2659012e+04
 2.6075799e+00   1.2685030e+04
 2.6122601e+00   1.2693277e+04
 2.6169400e+00   1.2732724e+04
 2.6216199e+00   1.2741934e+04
 2.6263001e+00   1.2778670e+04
 2.6309800e+00   1.2805604e+04
 2.6356599e+00   1.2837518e+04
 2.6403401e+00   1.2821973e+04
 2.6450200e+00   1.2874744e+04
 2.6496999e+00   1.2902758e+04
 2.6543801e+00   1.2923438e+04
 2.6590600e+00   1.2941916e+04
 2.6637399e+00   1.2941752e+04
 2.6684201e+00   1.2962695e+04
 2.6731000e+00   1.3026829e+04
 2.6777799e+00   1.3023612e+04
 2.6824601e+00   1.2991822e+04
 2.6871400e+00   1.3063383e+04
 2.6918199e+00   1.3018740e+04
 2.6965001e+00   1.3053841e+04
 2.7011800e+00   1.3062215e+04
 2.7058599e+00   1.3060448e+04
 2.7105401e+00   1.3072223e+04
 2.7152200e+00   1.3078230e+04
 2.7198999e+00   1.3073371e+04
 2.7245800e+00   1.3077650e+04
 2.7292600e+00   1.3069815e+04
 2.7339399e+00   1.3061339e+04
 2.7386200e+00   1.3056397e+04
 2.7433000e+00   1.3049921e+04
 2.7479801e+00   1.3040024e+04
 2.7526600e+00   1.3049037e+04
 2.7573400e+00   1.3032340e+04
 2.7620201e+00   1.3025884e+04
 2.7667000e+00   1.3039128e+04
 2.7713799e+00   1.3016235e+04
 2.7760601e+00   1.3011668e+04
 2.7807400e+00   1.2992216e+04
 2.7854199e+00   1.2983063e+04
 2.7901001e+00   1.2996213e+04
 2.7947800e+00   1.2983146e+04
 2.7994599e+00   1.2966983e+04
 2.8041401e+00   1.2950850e+04
 2.8088200e+00   1.2928379e+04
 2.8134999e+00   1.2898380e+04
 2.8181801e+00   1.2901148e+04
 2.8228600e+00   1.2885845e+04
 2.8275399e+00   1.2883306e+04
 2.8322201e+00   1.2871247e+04
 2.8369000e+00   1.2843141e+04
 2.8415799e+00   1.2810234e+04
 2.8462601e+00   1.2800119e+04
 2.8509400e+00   1.2804414e+04
 2.8556199e+00   1.2781336e+04
 2.8603001e+00   1.2767555e+04
 2.8649800e+00   1.2750525e+04
 2.8696599e+00   1.2734940e+04
 2.8743401e+00   1.2717069e+04
 2.8790200e+00   1.2709929e+04
 2.8836999e+00   1.2675784e+04
 2.8883801e+00   1.2668255e+04
 2.8930600e+00   1.2656976e+04
 2.8977399e+00   1.2653083e+04
 2.9024200e+00   1.2615994e+04
 2.9071000e+00   1.2596921e+04
 2.9117801e+00   1.2567111e+04
 2.9164600e+00   1.2546184e+04
 2.9211400e+00   1.2542409e+04
 2.9258201e+00   1.2506504e+04
 2.9305000e+00   1.2507832e+04
 2.9351799e+00   1.2462486e+04
 2.9398601e+00   1.2436738e+04
 2.9445400e+00   1.2436593e+04
 2.9492199e+00   1.2404123e+04
 2.9539001e+00   1.2386606e+04
 2.9585800e+00   1.2356554e+04
 2.9632599e+00   1.2342946e+04
 2.9679401e+00   1.2298692e+04
 2.9726200e+00   1.2290769e+04
 2.9772999e+00   1.2270337e+04
 2.9819801e+00   1.2256044e+04
 2.9866600e+00   1.2219383e+04
 2.9913399e+00   1.2170766e+04
 2.9960201e+00   1.2161455e+04
 3.0007000e+00   1.2141835e+04
 3.0053799e+00   1.2111335e+04
 3.0100601e+00   1.2101216e+04
 3.0147400e+00   1.2049675e+04
 3.0194199e+00   1.2025382e+04
 3.0241001e+00   1.2019735e+04
 3.0287800e+00   1.1993981e+04
 3.0334599e+00   1.1960079e+04
 3.0381401e+00   1.1908432e+04
 3.0428200e+00   1.1912634e+04
 3.0474999e+00   1.1882064e+04
 3.0521801e+00   1.1840242e+04
 3.0568600e+00   1.1821313e+04
 3.0615399e+00   1.1762656e+04
 3.0662200e+00   1.1748172e+04
 3.0709000e+00   1.1720634e+04
 3.0755799e+00   1.1682500e+04
 3.0802600e+00   1.1687466e+04
 3.0849400e+00   1.1620858e+04
 3.0896201e+00   1.1618012e+04
 3.0943000e+00   1.1574306e+04
 3.0989799e+00   1.1564212e+04
 3.1036601e+00   1.1515575e+04
 3.1083400e+00   1.1524652e+04
 3.1130199e+00   1.1501064e+04
 3.1177001e+00   1.1466314e+04
 3.1223800e+00   1.1460486e+04
 3.1270599e+00   1.1412434e+04
 3.1317401e+00   1.1411060e+04
 3.1364200e+00   1.1388605e+04
 3.1410999e+00   1.1373264e+04
 3.1457801e+00   1.1351349e+04
 3.1504600e+00   1.1327406e+04
 3.1551399e+00   1.1321628e+04
 3.1598201e+00   1.1299743e+04
 3.1645000e+00   1.1265883e+04
 3.1691799e+00   1.1250101e+04
 3.1738601e+00   1.1239801e+04
 3.1785400e+00   1.1208920e+04
 3.1832199e+00   1.1223015e+04
 3.1879001e+00   1.1206467e+04
 3.1925800e+00   1.1160951e+04
 3.1972599e+00   1.1164828e+04
 3.2019401e+00   1.1142069e+04
 3.2066200e+00   1.1113815e+04
 3.2112999e+00   1.1117319e+04
 3.2159801e+00   1.1081734e+04
 3.2206600e+00   1.1062400e+04
 3.2253399e+00   1.1053527e+04
 3.2300200e+00   1.1026193e+04
 3.2347000e+00   1.1024595e+04
 3.2393799e+00   1.0993057e+04
 3.2440600e+00   1.0985634e+04
 3.2487400e+00   1.0984235e+04
 3.2534201e+00   1.0945944e+04
 3.2581000e+00   1.0956319e+04
 3.2627800e+00   1.0951700e+04
 3.2674601e+00   1.0944213e+04
 3.2721400e+00   1.0930748e+04
 3.2768199e+00   1.0933191e+04
 3.2815001e+00   1.0896936e+04
 3.2861800e+00   1.0912589e+04
 3.2908599e+00   1.0881489e+04
 3.2955401e+00   1.0886454e+04
 3.3002200e+00   1.0880333e+04
 3.3048999e+00   1.0876936e+04
 3.3095801e+00   1.0876423e+04
 3.3142600e+00   1.0881865e+04
 3.3189399e+00   1.0834130e+04
 3.3236201e+00   1.0873684e+04
 3.3283000e+00   1.0835040e+04
 3.3329799e+00   1.0817022e+04
 3.3376601e+00   1.0833529e+04
 3.3423400e+00   1.0834764e+04
 3.3470199e+00   1.0804783e+04
 3.3517001e+00   1.0825136e+04
 3.3563800e+00   1.0776085e+04
 3.3610599e+00   1.0815951e+04
 3.3657401e+00   1.0800927e+04
 3.3704200e+00   1.0787925e+04
 3.3750999e+00   1.0790866e+04
 3.3797801e+00   1.0792416e+04
 3.3844600e+00   1.0780668e+04
 3.3891399e+00   1.0790812e+04
 3.3938200e+00   1.0765063e+04
 3.3985000e+00   1.0785666e+04
 3.4031799e+00   1.0806337e+04
 3.4078600e+00   1.0785426e+04
 3.4125400e+00   1.0814857e+04
 3.4172201e+00   1.0816112e+04
 3.4219000e+00   1.0834304e+04
 3.4265800e+00   1.0838220e+04
 3.4312601e+00   1.0814663e+04
 3.4359400e+00   1.0845028e+04
 3.4406199e+00   1.0849103e+04
 3.4453001e+00   1.0812353e+04
 3.4499800e+00   1.0848792e+04
 3.4546599e+00   1.0838437e+04
 3.4593401e+00   1.0851258e+04
 3.4640200e+00   1.0847669e+04
 3.4686999e+00   1.0844086e+04
 3.4733801e+00   1.0809798e+04
 3.4780600e+00   1.0868290e+04
 3.4827399e+00   1.0848577e+04
 3.4874201e+00   1.0859859e+04
 3.4921000e+00   1.0846187e+04
 3.4967799e+00   1.0841267e+04
 3.5014601e+00   1.0827708e+04
 3.5061400e+00   1.0863566e+04
 3.5108199e+00   1.0820437e+04
 3.5155001e+00   1.0859347e+04
 3.5201800e+00   1.0860953e+04
 3.5248599e+00   1.0808691e+04
 3.5295401e+00   1.0872819e+04
 3.5342200e+00   1.0804076e+04
 3.5388999e+00   1.0868487e+04
 3.5435801e+00   1.0872801e+04
 3.5482600e+00   1.0849415e+04
 3.5529399e+00   1.0856739e+04
 3.5576200e+00   1.0876954e+04
 3.5623000e+00   1.0869099e+04
 3.5669799e+00   1.0904800e+04
 3.5716600e+00   1.0837832e+04
 3.5763400e+00   1.0904770e+04
 3.5810201e+00   1.0881437e+04
 3.5857000e+00   1.0898685e+04
 3.5903800e+00   1.0880109e+04
 3.5950601e+00   1.0979651e+04
 3.5997400e+00   1.0851443e+04
 3.6044199e+00   1.0955830e+04
 3.6091001e+00   1.0882558e+04
 3.6137800e+00   1.0896925e+04
 3.6184599e+00   1.0952830e+04
 3.6231401e+00   1.0961565e+04
 3.6278200e+00   1.0913188e+04
 3.6324999e+00   1.0983752e+04
 3.6371801e+00   1.0925785e+04
 3.6418600e+00   1.0985288e+04
 3.6465399e+00   1.1016718e+04
 3.6512201e+00   1.0941233e+04
 3.6559000e+00   1.1079302e+04
 3.6605799e+00   1.0972879e+04
 3.6652601e+00   1.1045492e+04
 3.6699400e+00   1.1067174e+04
 3.6746199e+00   1.1049996e+04
 3.6793001e+00   1.1049024e+04
 3.6839800e+00   1.1248076e+04
 3.6886599e+00   1.0997686e+04
 3.6933401e+00   1.1263650e+04
 3.6980200e+00   1.1046001e+04
 3.7026999e+00   1.1259072e+04
 3.7073801e+00   1.1182066e+04
 3.7120600e+00   1.1286448e+04
 3.7167399e+00   1.1143819e+04
 3.7214200e+00   1.1473306e+04
 3.7261000e+00   1.1228612e+04
 3.7307799e+00   1.1363893e+04
 3.7354600e+00   1.1391873e+04
 3.7401400e+00   1.1410338e+04
 3.7448201e+00   1.1558722e+04
 3.7495000e+00   1.1475943e+04
 3.7541800e+00   1.1543895e+04
 3.7588601e+00   1.1496900e+04
 3.7635400e+00   1.1597594e+04
 3.7682199e+00   1.1644974e+04
 3.7729001e+00   1.1866967e+04
 3.7775800e+00   1.1627319e+04
 3.7822599e+00   1.1991013e+04
 3.7869401e+00   1.1743555e+04
 3.7916200e+00   1.2024287e+04
 3.7962999e+00   1.2008771e+04
 3.8009801e+00   1.2272152e+04
 3.8056600e+00   1.1946376e+04
 3.8103399e+00   1.2553781e+04
 3.8150201e+00   1.1949841e+04
 3.8197000e+00   1.2763514e+04
 3.8243799e+00   1.2450279e+04
 3.8290601e+00   1.2873169e+04
 3.8337400e+00   1.2563586e+04
 3.8384199e+00   1.3283741e+04
 3.8431001e+00   1.2758776e+04
 3.8477800e+00   1.3441792e+04
 3.8524599e+00   1.3287325e+04
 3.8571401e+00   1.3755270e+04
 3.8618200e+00   1.3736467e+04
 3.8664999e+00   1.3811188e+04
 3.8711801e+00   1.4019428e+04
 3.8758600e+00   1.4566436e+04
 3.8805399e+00   1.4652358e+04
 3.8852201e+00   1.5630676e+04
 3.8899000e+00   1.5318458e+04
 3.8945799e+00   1.6536062e+04
 3.8992600e+00   1.6356348e+04
 3.9039400e+00   1.8965829e+04
 3.9086201e+00   1.7341411e+04
 3.9133000e+00   2.5004057e+04
 3.9179800e+00   2.0234404e+04
 3.9226601e+00   3.7986025e+04
 3.9273400e+00   2.5180528e+04
 3.9320199e+00   5.7168379e+04
 3.9367001e+00   3.8774140e+04
 3.9413800e+00   8.4320323e+04
 3.9460599e+00   6.7141641e+04
 3.9507401e+00   8.9599492e+04
 3.9554200e+00   7.2652301e+04
 3.9600999e+00   8.9053095e+04
 3.9647801e+00   8.5432809e+04
 3.9694600e+00   1.0186487e+05
 3.9741399e+00   1.0682382e+05
 3.9788201e+00   8.7870246e+04
 3.9835000e+00   9.0216082e+04
 3.9881799e+00   5.4062280e+04
 3.9928601e+00   6.7919200e+04
 3.9975400e+00   3.6189511e+04
 4.0022202e+00   3.7013061e+04
 4.0068998e+00   3.5079497e+04
 4.0115800e+00   2.9025160e+04
 4.0162601e+00   1.9707703e+04
 4.0209398e+00   2.0584668e+04
 4.0256200e+00   1.7012472e+04
 4.0303001e+00   1.7345001e+04
 4.0349798e+00   1.5063818e+04
 4.0396600e+00   1.5499552e+04
 4.0443401e+00   1.4641604e+04
 4.0490198e+00   1.3832128e+04
 4.0537000e+00   1.4114724e+04
 4.0583801e+00   1.3047873e+04
 4.0630598e+00   1.3610372e+04
 4.0677400e+00   1.2654975e+04
 4.0724201e+00   1.2828174e+04
 4.0770998e+00   1.2231206e+04
 4.0817800e+00   1.2434516e+04
 4.0864601e+00   1.2126862e+04
 4.0911398e+00   1.2163618e+04
 4.0958200e+00   1.1701931e+04
 4.1005001e+00   1.1633112e+04
 4.1051798e+00   1.1457859e+04
 4.1098599e+00   1.1123087e+04
 4.1145401e+00   1.1384790e+04
 4.1192198e+00   1.1066349e+04
 4.1238999e+00   1.0933841e+04
 4.1285801e+00   1.0774355e+04
 4.1332598e+00   1.0645288e+04
 4.1379399e+00   1.0473803e+04
 4.1426201e+00   1.0694741e+04
 4.1472998e+00   1.0103259e+04
 4.1519799e+00   1.0398509e+04
 4.1566601e+00   1.0070803e+04
 4.1613402e+00   1.0167926e+04
 4.1660199e+00   9.8383764e+03
 4.1707001e+00   1.0018526e+04
 4.1753802e+00   9.6528498e+03
 4.1800599e+00   9.9654208e+03
 4.1847401e+00   9.5192535e+03
 4.1894202e+00   9.7726731e+03
 4.1940999e+00   9.4224303e+03
 4.1987801e+00   9.5415283e+03
 4.2034602e+00   9.4508615e+03
 4.2081399e+00   9.3948498e+03
 4.2128201e+00   9.3189229e+03
 4.2175002e+00   9.3832480e+03
 4.2221799e+00   9.1886906e+03
 4.2268600e+00   9.1010749e+03
 4.2315402e+00   9.1969309e+03
 4.2362199e+00   8.9358684e+03
 4.2409000e+00   9.0306343e+03
 4.2455802e+00   8.9296516e+03
 4.2502599e+00   8.8136249e+03
 4.2549400e+00   8.7882580e+03
 4.2596202e+00   8.8187313e+03
 4.2642999e+00   8.6785374e+03
 4.2689800e+00   8.7799624e+03
 4.2736602e+00   8.5499390e+03
 4.2783399e+00   8.6342905e+03
 4.2830200e+00   8.4425646e+03
 4.2877002e+00   8.5017121e+03
 4.2923799e+00   8.3458119e+03
 4.2970600e+00   8.4524050e+03
 4.3017402e+00   8.2645186e+03
 4.3064198e+00   8.3310277e+03
 4.3111000e+00   8.1726683e+03
 4.3157802e+00   8.2640597e+03
 4.3204598e+00   8.2010133e+03
 4.3251400e+00   8.1199353e+03
 4.3298202e+00   8.1016355e+03
 4.3344998e+00   8.0433151e+03
 4.3391800e+00   7.9629644e+03
 4.3438601e+00   8.0170401e+03
 4.3485398e+00   7.9855900e+03
 4.3532200e+00   7.9234996e+03
 4.3579001e+00   7.9313079e+03
 4.3625798e+00   7.8234090e+03
 4.3672600e+00   7.8500879e+03
 4.3719401e+00   7.8005492e+03
 4.3766198e+00   7.7873351e+03
 4.3813000e+00   7.7895675e+03
 4.3859801e+00   7.7452945e+03
 4.3906598e+00   7.6879509e+03
 4.3953400e+00   7.7038325e+03
 4.4000201e+00   7.6343875e+03
 4.4046998e+00   7.7077808e+03
 4.4093800e+00   7.6178350e+03
 4.4140601e+00   7.6164428e+03
 4.4187398e+00   7.6250231e+03
 4.4234200e+00   7.6034400e+03
 4.4281001e+00   7.5451120e+03
 4.4327798e+00   7.6490345e+03
 4.4374599e+00   7.5824864e+03
 4.4421401e+00   7.6249353e+03
 4.4468198e+00   7.6450432e+03
 4.4514999e+00   7.6458657e+03
 4.4561801e+00   7.7449717e+03
 4.4608598e+00   7.8233918e+03
 4.4655399e+00   7.9443908e+03
 4.4702201e+00   8.1712497e+03
 4.4748998e+00   8.4014337e+03
 4.4795799e+00   8.7029247e+03
 4.4842601e+00   9.1389687e+03
 4.4889398e+00   9.5473935e+03
 4.4936199e+00   9.9995723e+03
 4.4983001e+00   1.0369214e+04
 4.5029802e+00   1.0584343e+04
 4.5076599e+00   1.0617695e+04
 4.5123401e+00   1.0475371e+04
 4.5170202e+00   1.0062909e+04
 4.5216999e+00   9.6363738e+03
 4.5263801e+00   9.1032470e+03
 4.5310602e+00   8.6156733e+03
 4.5357399e+00   8.2302472e+03
 4.5404201e+00   7.8505325e+03
 4.5451002e+00   7.6144625e+03
 4.5497799e+00   7.4468747e+03
 4.5544600e+00   7.2956594e+03
 4.5591402e+00   7.1967086e+03
 4.5638199e+00   7.1147388e+03
 4.5685000e+00   7.0267255e+03
 4.5731802e+00   7.0286244e+03
 4.5778599e+00   6.9721143e+03
 4.5825400e+00   6.9699140e+03
 4.5872202e+00   6.9266693e+03
 4.5918999e+00   6.8915062e+03
 4.5965800e+00   6.8750005e+03
 4.6012602e+00   6.8485494e+03
 4.6059399e+00   6.8323592e+03
 4.6106200e+00   6.8206028e+03
 4.6153002e+00   6.8004078e+03
 4.6199799e+00   6.7640509e+03
 4.6246600e+00   6.7653664e+03
 4.6293402e+00   6.7451030e+03
 4.6340199e+00   6.7479765e+03
 4.6387000e+00   6.7262610e+03
 4.6433802e+00   6.7192843e+03
 4.6480598e+00   6.7162390e+03
 4.6527400e+00   6.7122097e+03
 4.6574202e+00   6.6916946e+03
 4.6620998e+00   6.7357038e+03
 4.6667800e+00   6.7460357e+03
 4.6714602e+00   6.7429975e+03
 4.6761398e+00   6.8156654e+03
 4.6808200e+00   6.8748114e+03
 4.6855001e+00   6.9875460e+03
 4.6901798e+00   7.1693728e+03
 4.6948600e+00   7.4190481e+03
 4.6995401e+00   7.7700550e+03
 4.7042198e+00   8.2420641e+03
 4.7089000e+00   8.7484662e+03
 4.7135801e+00   9.3185447e+03
 4.7182598e+00   9.8071136e+03
 4.7229400e+00   1.0168118e+04
 4.7276201e+00   1.0246023e+04
 4.7322998e+00   1.0123438e+04
 4.7369800e+00   9.7530883e+03
 4.7416601e+00   9.2701399e+03
 4.7463398e+00   8.7363739e+03
 4.7510200e+00   8.2406348e+03
 4.7557001e+00   7.7724436e+03
 4.7603798e+00   7.4102153e+03
 4.7650599e+00   7.1444807e+03
 4.7697401e+00   6.9326680e+03
 4.7744198e+00   6.7999192e+03
 4.7790999e+00   6.6956584e+03
 4.7837801e+00   6.6053486e+03
 4.7884598e+00   6.5626881e+03
 4.7931399e+00   6.5219703e+03
 4.7978201e+00   6.4926044e+03
 4.8024998e+00   6.4722635e+03
 4.8071799e+00   6.4488888e+03
 4.8118601e+00   6.4334128e+03
 4.8165398e+00   6.4313339e+03
 4.8212199e+00   6.4446972e+03
 4.8259001e+00   6.4580175e+03
 4.8305802e+00   6.4721416e+03
 4.8352599e+00   6.4834135e+03
 4.8399401e+00   6.5514582e+03
 4.8446202e+00   6.5895344e+03
 4.8492999e+00   6.7045729e+03
 4.8539801e+00   6.8350666e+03
 4.8586602e+00   7.0602777e+03
 4.8633399e+00   7.3646056e+03
 4.8680201e+00   7.7968354e+03
 4.8727002e+00   8.3827257e+03
 4.8773799e+00   9.1960475e+03
 4.8820601e+00   1.0113517e+04
 4.8867402e+00   1.1127479e+04
 4.8914199e+00   1.2084250e+04
 4.8961000e+00   1.2865520e+04
 4.9007802e+00   1.3222326e+04
 4.9054599e+00   1.3122044e+04
 4.9101400e+00   1.2688662e+04
 4.9148202e+00   1.1829640e+04
 4.9194999e+00   1.0904713e+04
 4.9241800e+00   9.8656168e+03
 4.9288602e+00   9.0088326e+03
 4.9335399e+00   8.2621752e+03
 4.9382200e+00   7.7238667e+03
 4.9429002e+00   7.2540115e+03
 4.9475799e+00   6.9548392e+03
 4.9522600e+00   6.7202198e+03
 4.9569402e+00   6.5840887e+03
 4.9616199e+00   6.4714030e+03
 4.9663000e+00   6.4019518e+03
 4.9709802e+00   6.3267991e+03
 4.9756598e+00   6.2790215e+03
 4.9803400e+00   6.2581021e+03
 4.9850202e+00   6.2294429e+03
 4.9896998e+00   6.1808683e+03
 4.9943800e+00   6.1653335e+03
 4.9990602e+00   6.1491823e+03
 5.0037398e+00   6.1402408e+03
 5.0084200e+00   6.1177871e+03
 5.0131001e+00   6.1294868e+03
 5.0177798e+00   6.1162651e+03
 5.0224600e+00   6.1017849e+03
 5.0271401e+00   6.1098574e+03
 5.0318198e+00   6.0890766e+03
 5.0365000e+00   6.1152929e+03
 5.0411801e+00   6.0895631e+03
 5.0458598e+00   6.1191967e+03
 5.0505400e+00   6.1229572e+03
 5.0552201e+00   6.1351743e+03
 5.0598998e+00   6.1617449e+03
 5.0645800e+00   6.1737689e+03
 5.0692601e+00   6.2063874e+03
 5.0739398e+00   6.2738481e+03
 5.0786200e+00   6.3713343e+03
 5.0833001e+00   6.5096244e+03
 5.0879798e+00   6.6297457e+03
 5.0926600e+00   6.7734002e+03
 5.0973401e+00   6.9087667e+03
 5.1020198e+00   7.3175665e+03
 5.1066999e+00   7.6195771e+03
 5.1113801e+00   7.7427276e+03
 5.1160598e+00   7.5830620e+03
 5.1207399e+00   7.8291757e+03
 5.1254201e+00   8.5116858e+03
 5.1300998e+00   9.8556547e+03
 5.1347799e+00   1.0961347e+04
 5.1394601e+00   1.2357655e+04
 5.1441398e+00   1.2869706e+04
 5.1488199e+00   1.2981810e+04
 5.1535001e+00   1.2168156e+04
 5.1581802e+00   1.1075108e+04
 5.1628599e+00   9.7401446e+03
 5.1675401e+00   8.6467680e+03
 5.1722202e+00   7.6539661e+03
 5.1768999e+00   7.0516830e+03
 5.1815801e+00   6.6052297e+03
 5.1862602e+00   6.5455645e+03
 5.1909399e+00   6.6447915e+03
 5.1956201e+00   6.5374817e+03
 5.2003002e+00   6.4522061e+03
 5.2049799e+00   6.2570289e+03
 5.2096601e+00   6.2290620e+03
 5.2143402e+00   6.1893136e+03
 5.2190199e+00   6.1447024e+03
 5.2237000e+00   6.0996530e+03
 5.2283802e+00   6.0428928e+03
 5.2330599e+00   6.0204251e+03
 5.2377400e+00   5.9854318e+03
 5.2424202e+00   5.9513472e+03
 5.2470999e+00   5.9326268e+03
 5.2517800e+00   5.9261734e+03
 5.2564602e+00   5.8880019e+03
 5.2611399e+00   5.9045988e+03
 5.2658200e+00   5.8841800e+03
 5.2705002e+00   5.8626124e+03
 5.2751799e+00   5.8673054e+03
 5.2798600e+00   5.8676223e+03
 5.2845402e+00   5.8238706e+03
 5.2892199e+00   5.8479623e+03
 5.2939000e+00   5.8264818e+03
 5.2985802e+00   5.8005719e+03
 5.3032598e+00   5.8307482e+03
 5.3079400e+00   5.8025911e+03
 5.3126202e+00   5.8151139e+03
 5.3172998e+00   5.8112811e+03
 5.3219800e+00   5.8005201e+03
 5.3266602e+00   5.8062467e+03
 5.3313398e+00   5.7938559e+03
 5.3360200e+00   5.7659995e+03
 5.3407001e+00   5.7923924e+03
 5.3453798e+00   5.7723584e+03
 5.3500600e+00   5.7781204e+03
 5.3547401e+00   5.7825226e+03
 5.3594198e+00   5.7578677e+03
 5.3641000e+00   5.7797943e+03
 5.3687801e+00   5.7781409e+03
 5.3734598e+00   5.7507065e+03
 5.3781400e+00   5.7943566e+03
 5.3828201e+00   5.7649708e+03
 5.3874998e+00   5.7609789e+03
 5.3921800e+00   5.7893135e+03
 5.3968601e+00   5.7881893e+03
 5.4015398e+00   5.8010629e+03
 5.4062200e+00   5.8098075e+03
 5.4109001e+00   5.7872558e+03
 5.4155798e+00   5.8202669e+03
 5.4202600e+00   5.8294024e+03
 5.4249401e+00   5.8309718e+03
 5.4296198e+00   5.8802123e+03
 5.4342999e+00   5.8835850e+03
 5.4389801e+00   5.9011414e+03
 5.4436598e+00   5.9508359e+03
 5.4483399e+00   5.9604741e+03
 5.4530201e+00   6.0194300e+03
 5.4576998e+00   6.0537890e+03
 5.4623799e+00   6.1058880e+03
 5.4670601e+00   6.2083326e+03
 5.4717398e+00   6.2797394e+03
 5.4764199e+00   6.4105926e+03
 5.4811001e+00   6.5797756e+03
 5.4857798e+00   6.7696353e+03
 5.4904599e+00   7.0634341e+03
 5.4951401e+00   7.4057608e+03
 5.4998202e+00   7.8979573e+03
 5.5044999e+00   8.6247370e+03
 5.5091801e+00   9.5657371e+03
 5.5138602e+00   1.0885360e+04
 5.5185399e+00   1.2636960e+04
 5.5232201e+00   1.4945496e+04
 5.5279002e+00   1.7710112e+04
 5.5325799e+00   2.0930621e+04
 5.5372601e+00   2.4121414e+04
 5.5419402e+00   2.7070310e+04
 5.5466199e+00   2.9010755e+04
 5.5513000e+00   2.9697980e+04
 5.5559802e+00   2.9132401e+04
 5.5606599e+00   2.7166648e+04
 5.5653400e+00   2.4398324e+04
 5.5700202e+00   2.1247170e+04
 5.5746999e+00   1.8164785e+04
 5.5793800e+00   1.5426156e+04
 5.5840602e+00   1.3250247e+04
 5.5887399e+00   1.1461516e+04
 5.5934200e+00   1.0327560e+04
 5.5981002e+00   1.0189526e+04
 5.6027799e+00   9.9827362e+03
 5.6074600e+00   8.8097852e+03
 5.6121402e+00   7.7728371e+03
 5.6168199e+00   7.1842359e+03
 5.6215000e+00   6.8573494e+03
 5.6261802e+00   6.6100443e+03
 5.6308599e+00   6.4444557e+03
 5.6355400e+00   6.2751317e+03
 5.6402202e+00   6.1464903e+03
 5.6448998e+00   6.1040238e+03
 5.6495800e+00   6.0400531e+03
 5.6542602e+00   5.9815138e+03
 5.6589398e+00   5.9515311e+03
 5.6636200e+00   5.9096172e+03
 5.6683002e+00   5.8945604e+03
 5.6729798e+00   5.8564798e+03
 5.6776600e+00   5.8074692e+03
 5.6823401e+00   5.8120846e+03
 5.6870198e+00   5.7847868e+03
 5.6917000e+00   5.7551832e+03
 5.6963801e+00   5.7788044e+03
 5.7010598e+00   5.7488296e+03
 5.7057400e+00   5.7496405e+03
 5.7104201e+00   5.7435992e+03
 5.7150998e+00   5.7176752e+03
 5.7197800e+00   5.7420929e+03
 5.7244601e+00   5.7236463e+03
 5.7291398e+00   5.7032203e+03
 5.7338200e+00   5.7470930e+03
 5.7385001e+00   5.7314984e+03
 5.7431798e+00   5.7361693e+03
 5.7478600e+00   5.7732084e+03
 5.7525401e+00   5.7499910e+03
 5.7572198e+00   5.7854752e+03
 5.7618999e+00   5.7655852e+03
 5.7665801e+00   5.7440069e+03
 5.7712598e+00   5.7706016e+03
 5.7759399e+00   5.7434633e+03
 5.7806201e+00   5.7398572e+03
 5.7852998e+00   5.7516538e+03
 5.7899799e+00   5.7207851e+03
 5.7946601e+00   5.7312517e+03
 5.7993398e+00   5.7230257e+03
 5.8040199e+00   5.7145918e+03
 5.8087001e+00   5.7371668e+03
 5.8133798e+00   5.7047034e+03
 5.8180599e+00   5.6755359e+03
 5.8227401e+00   5.6999345e+03
 5.8274202e+00   5.6684177e+03
 5.8320999e+00   5.6798557e+03
 5.8367801e+00   5.6779638e+03
 5.8414602e+00   5.6569098e+03
 5.8461399e+00   5.6740049e+03
 5.8508201e+00   5.6658869e+03
 5.8555002e+00   5.6616698e+03
 5.8601799e+00   5.7103320e+03
 5.8648601e+00   5.6951769e+03
 5.8695402e+00   5.7036898e+03
 5.8742199e+00   5.7246956e+03
 5.8789001e+00   5.7386567e+03
 5.8835802e+00   5.7777302e+03
 5.8882599e+00   5.8164883e+03
 5.8929400e+00   5.8246610e+03
 5.8976202e+00   5.9059289e+03
 5.9022999e+00   5.9378301e+03
 5.9069800e+00   6.0419595e+03
 5.9116602e+00   6.2175989e+03
 5.9163399e+00   6.3757294e+03
 5.9210200e+00   6.5507989e+03
 5.9257002e+00   6.6381590e+03
 5.9303799e+00   7.1002073e+03
 5.9350600e+00   7.3596873e+03
 5.9397402e+00   7.6839418e+03
 5.9444199e+00   7.6954735e+03
 5.9491000e+00   7.6357223e+03
 5.9537802e+00   7.3008411e+03
 5.9584599e+00   7.0723020e+03
 5.9631400e+00   6.7923020e+03
 5.9678202e+00   6.7396745e+03
 5.9724998e+00   6.6452340e+03
 5.9771800e+00   6.5744734e+03
 5.9818602e+00   6.5121471e+03
 5.9865398e+00   6.4979610e+03
 5.9912200e+00   6.4648322e+03
 5.9959002e+00   6.4188850e+03
 6.0005798e+00   6.3547960e+03
 6.0052600e+00   6.2507417e+03
 6.0099401e+00   6.1853481e+03
 6.0146198e+00   6.0996843e+03
 6.0193000e+00   6.0027070e+03
 6.0239801e+00   5.9788681e+03
 6.0286598e+00   5.8950590e+03
 6.0333400e+00   5.8561015e+03
 6.0380201e+00   5.8430006e+03
 6.0426998e+00   5.7947724e+03
 6.0473800e+00   5.7888232e+03
 6.0520601e+00   5.7723595e+03
 6.0567398e+00   5.7405759e+03
 6.0614200e+00   5.7452926e+03
 6.0661001e+00   5.7182261e+03
 6.0707798e+00   5.7167847e+03
 6.0754600e+00   5.7434022e+03
 6.0801401e+00   5.7155574e+03
 6.0848198e+00   5.7034796e+03
 6.0895000e+00   5.7374979e+03
 6.0941801e+00   5.7098621e+03
 6.0988598e+00   5.7242310e+03
 6.1035399e+00   5.7302722e+03
 6.1082201e+00   5.7087602e+03
 6.1128998e+00   5.7412536e+03
 6.1175799e+00   5.7240524e+03
 6.1222601e+00   5.7177592e+03
 6.1269398e+00   5.7221243e+03
 6.1316199e+00   5.7225494e+03
 6.1363001e+00   5.7223985e+03
 6.1409798e+00   5.7411822e+03
 6.1456599e+00   5.7179338e+03
 6.1503401e+00   5.7499609e+03
 6.1550202e+00   5.7359405e+03
 6.1596999e+00   5.7340546e+03
 6.1643801e+00   5.7399798e+03
 6.1690602e+00   5.7391543e+03
 6.1737399e+00   5.7491589e+03
 6.1784201e+00   5.7656073e+03
 6.1831002e+00   5.7410491e+03
 6.1877799e+00   5.7764207e+03
 6.1924601e+00   5.7761897e+03
 6.1971402e+00   5.7654753e+03
 6.2018199e+00   5.7804266e+03
 6.2065001e+00   5.7752635e+03
 6.2111802e+00   5.7713579e+03
 6.2158599e+00   5.8008785e+03
 6.2205400e+00   5.7550702e+03
 6.2252202e+00   5.7824854e+03
 6.2298999e+00   5.7952440e+03
 6.2345800e+00   5.7714044e+03
 6.2392602e+00   5.8011198e+03
 6.2439399e+00   5.7827694e+03
 6.2486200e+00   5.7907882e+03
 6.2533002e+00   5.8172590e+03
 6.2579799e+00   5.8149572e+03
 6.2626600e+00   5.8060864e+03
 6.2673402e+00   5.8256384e+03
 6.2720199e+00   5.8114074e+03
 6.2767000e+00   5.8408851e+03
 6.2813802e+00   5.8319071e+03
 6.2860599e+00   5.8330399e+03
 6.2907400e+00   5.8343377e+03
 6.2954202e+00   5.8501482e+03
 6.3000998e+00   5.8270007e+03
 6.3047800e+00   5.8636378e+03
 6.3094602e+00   5.8488179e+03
 6.3141398e+00   5.8644852e+03
 6.3188200e+00   5.8684991e+03
 6.3235002e+00   5.8550562e+03
 6.3281798e+00   5.9021893e+03
 6.3328600e+00   5.8909007e+03
 6.3375401e+00   5.9031426e+03
 6.3422198e+00   5.9012070e+03
 6.3469000e+00   5.8898250e+03
 6.3515801e+00   5.9101433e+03
 6.3562598e+00   5.9282196e+03
 6.3609400e+00   5.8844827e+03
 6.3656201e+00   5.9301248e+03
 6.3702998e+00   5.9053319e+03
 6.3749800e+00   5.9212769e+03
 6.3796601e+00   5.9348240e+03
 6.3843398e+00   5.9505479e+03
 6.3890200e+00   5.9404768e+03
 6.3937001e+00   5.9684390e+03
 6.3983798e+00   5.9435385e+03
 6.4030600e+00   5.9700946e+03
 6.4077401e+00   5.9715521e+03
 6.4124198e+00   5.9740433e+03
 6.4171000e+00   6.0128573e+03
 6.4217801e+00   6.0071962e+03
 6.4264598e+00   6.0137824e+03
 6.4311399e+00   6.0317461e+03
 6.4358201e+00   6.0254047e+03
 6.4404998e+00   6.0374218e+03
 6.4451799e+00   6.0567006e+03
 6.4498601e+00   6.0254608e+03
 6.4545398e+00   6.0812484e+03
 6.4592199e+00   6.0329899e+03
 6.4639001e+00   6.1098645e+03
 6.4685798e+00   6.0849977e+03
 6.4732599e+00   6.1198269e+03
 6.4779401e+00   6.1009929e+03
 6.4826198e+00   6.1429150e+03
 6.4872999e+00   6.1028408e+03
 6.4919801e+00   6.1996110e+03
 6.4966602e+00   6.1687342e+03
 6.5013399e+00   6.1748219e+03
 6.5060201e+00   6.2094312e+03
 6.5107002e+00   6.1869547e+03
 6.5153799e+00   6.2393381e+03
 6.5200601e+00   6.2396847e+03
 6.5247402e+00   6.2813603e+03
 6.5294199e+00   6.2345805e+03
 6.5341001e+00   6.3076193e+03
 6.5387802e+00   6.2626321e+03
 6.5434599e+00   6.3210967e+03
 6.5481400e+00   6.2901426e+03
 6.5528202e+00   6.3780946e+03
 6.5574999e+00   6.3434582e+03
 6.5621800e+00   6.3667082e+03
 6.5668602e+00   6.3518558e+03
 6.5715399e+00   6.4560600e+03
 6.5762200e+00   6.3878490e+03
 6.5809002e+00   6.4838690e+03
 6.5855799e+00   6.4263192e+03
 6.5902600e+00   6.4865412e+03
 6.5949402e+00   6.4879662e+03
 6.5996199e+00   6.5048876e+03
 6.6043000e+00   6.5555265e+03
 6.6089802e+00   6.5565577e+03
 6.6136599e+00   6.5929117e+03
 6.6183400e+00   6.6027993e+03
 6.6230202e+00   6.6522374e+03
 6.6276999e+00   6.6212826e+03
 6.6323800e+00   6.7297987e+03
 6.6370602e+00   6.6550050e+03
 6.6417398e+00   6.7462977e+03
 6.6464200e+00   6.7312454e+03
 6.6511002e+00   6.8060317e+03
 6.6557798e+00   6.7704376e+03
 6.6604600e+00   6.9133037e+03
 6.6651402e+00   6.8022269e+03
 6.6698198e+00   6.9169237e+03
 6.6745000e+00   6.8409823e+03
 6.6791801e+00   6.9667743e+03
 6.6838598e+00   6.9687400e+03
 6.6885400e+00   6.9841366e+03
 6.6932201e+00   7.0533078e+03
 6.6978998e+00   7.0250942e+03
 6.7025800e+00   7.0861306e+03
 6.7072601e+00   7.0769487e+03
 6.7119398e+00   7.1548808e+03
 6.7166200e+00   7.1368863e+03
 6.7213001e+00   7.2444072e+03
 6.7259798e+00   7.1356726e+03
 6.7306600e+00   7.2861101e+03
 6.7353401e+00   7.2685463e+03
 6.7400198e+00   7.3866100e+03
 6.7447000e+00   7.3206928e+03
 6.7493801e+00   7.4031186e+03
 6.7540598e+00   7.3664047e+03
 6.7587399e+00   7.5601120e+03
 6.7634201e+00   7.4843992e+03
 6.7680998e+00   7.5616341e+03
 6.7727799e+00   7.6473277e+03
 6.7774601e+00   7.5592554e+03
 6.7821398e+00   7.7020430e+03
 6.7868199e+00   7.6949711e+03
 6.7915001e+00   7.8101257e+03
 6.7961798e+00   7.7540169e+03
 6.8008599e+00   7.9134924e+03
 6.8055401e+00   7.8088529e+03
 6.8102198e+00   8.0427919e+03
 6.8148999e+00   8.0311968e+03
 6.8195801e+00   8.2614305e+03
 6.8242602e+00   8.1771446e+03
 6.8289399e+00   8.5367111e+03
 6.8336201e+00   8.4102426e+03
 6.8383002e+00   8.9313986e+03
 6.8429799e+00   9.4720836e+03
 6.8476601e+00   1.0337393e+04
 6.8523402e+00   1.1911168e+04
 6.8570199e+00   1.4084249e+04
 6.8617001e+00   1.7769902e+04
 6.8663802e+00   2.4107947e+04
 6.8710599e+00   2.7695155e+04
 6.8757401e+00   3.0070135e+04
 6.8804202e+00   2.6552107e+04
 6.8850999e+00   2.8033706e+04
 6.8897800e+00   2.0331450e+04
 6.8944602e+00   1.9259007e+04
 6.8991399e+00   1.7506454e+04
 6.9038200e+00   1.1087457e+04
 6.9085002e+00   1.0845648e+04
 6.9131799e+00   9.5547297e+03
 6.9178600e+00   9.3313800e+03
 6.9225402e+00   8.9220225e+03
 6.9272199e+00   8.8926878e+03
 6.9319000e+00   8.6231685e+03
 6.9365802e+00   8.5174043e+03
 6.9412599e+00   8.3671876e+03
 6.9459400e+00   8.2729717e+03
 6.9506202e+00   8.4157852e+03
 6.9552999e+00   8.2746080e+03
 6.9599800e+00   8.3336511e+03
 6.9646602e+00   8.1131190e+03
 6.9693398e+00   8.1494264e+03
 6.9740200e+00   8.1503890e+03
 6.9787002e+00   8.3312697e+03
 6.9833798e+00   8.1883082e+03
 6.9880600e+00   8.4674672e+03
 6.9927402e+00   8.3360404e+03
 6.9974198e+00   8.6476776e+03
 7.0021000e+00   8.7022609e+03
 7.0067801e+00   9.1552210e+03
 7.0114598e+00   9.3390124e+03
 7.0161400e+00   9.6832595e+03
 7.0208201e+00   9.8935332e+03
 7.0254998e+00   1.0154648e+04
 7.0301800e+00   1.0271178e+04
 7.0348601e+00   1.0321737e+04
 7.0395398e+00   1.0214465e+04
 7.0442200e+00   9.8726768e+03
 7.0489001e+00   9.6646585e+03
 7.0535798e+00   9.2506769e+03
 7.0582600e+00   9.0094569e+03
 7.0629401e+00   8.7134693e+03
 7.0676198e+00   8.4740535e+03
 7.0723000e+00   8.1736887e+03
 7.0769801e+00   7.9946520e+03
 7.0816598e+00   7.7431708e+03
 7.0863400e+00   7.7562874e+03
 7.0910201e+00   7.4663938e+03
 7.0956998e+00   7.4757737e+03
 7.1003799e+00   7.3313621e+03
 7.1050601e+00   7.2724511e+03
 7.1097398e+00   7.1862584e+03
 7.1144199e+00   7.1893789e+03
 7.1191001e+00   7.1198214e+03
 7.1237798e+00   7.1061634e+03
 7.1284599e+00   7.0616595e+03
 7.1331401e+00   7.0168700e+03
 7.1378198e+00   7.0359445e+03
 7.1424999e+00   6.9707320e+03
 7.1471801e+00   6.9892145e+03
 7.1518602e+00   6.9450259e+03
 7.1565399e+00   6.9308273e+03
 7.1612201e+00   6.8957363e+03
 7.1659002e+00   6.9210389e+03
 7.1705799e+00   6.8283443e+03
 7.1752601e+00   6.9196320e+03
 7.1799402e+00   6.7976075e+03
 7.1846199e+00   6.8559925e+03
 7.1893001e+00   6.8002601e+03
 7.1939802e+00   6.8332053e+03
 7.1986599e+00   6.7793858e+03
 7.2033401e+00   6.7848553e+03
 7.2080202e+00   6.7449185e+03
 7.2126999e+00   6.7744369e+03
 7.2173800e+00   6.7284291e+03
 7.2220602e+00   6.7297173e+03
 7.2267399e+00   6.7451065e+03
 7.2314200e+00   6.6975450e+03
 7.2361002e+00   6.7222030e+03
 7.2407799e+00   6.6853048e+03
 7.2454600e+00   6.7064906e+03
 7.2501402e+00   6.7078412e+03
 7.2548199e+00   6.7161132e+03
 7.2595000e+00   6.6920972e+03
 7.2641802e+00   6.7449886e+03
 7.2688599e+00   6.6829386e+03
 7.2735400e+00   6.7215405e+03
 7.2782202e+00   6.6553713e+03
 7.2828999e+00   6.7002341e+03
 7.2875800e+00   6.6589058e+03
 7.2922602e+00   6.6651030e+03
 7.2969398e+00   6.6281553e+03
 7.3016200e+00   6.6456374e+03
 7.3063002e+00   6.6113925e+03
 7.3109798e+00   6.6121347e+03
 7.3156600e+00   6.6221526e+03
 7.3203402e+00   6.6129732e+03
 7.3250198e+00   6.6406284e+03
 7.3297000e+00   6.6097365e+03
 7.3343801e+00   6.6120269e+03
 7.3390598e+00   6.6033059e+03
 7.3437400e+00   6.6232098e+03
 7.3484201e+00   6.5930610e+03
 7.3530998e+00   6.6128850e+03
 7.3577800e+00   6.5827159e+03
 7.3624601e+00   6.5894844e+03
 7.3671398e+00   6.5625756e+03
 7.3718200e+00   6.5859548e+03
 7.3765001e+00   6.5638305e+03
 7.3811798e+00   6.5410233e+03
 7.3858600e+00   6.5289230e+03
 7.3905401e+00   6.5066423e+03
 7.3952198e+00   6.4887974e+03
 7.3999000e+00   6.4805364e+03
 7.4045801e+00   6.4723671e+03
 7.4092598e+00   6.4458374e+03
 7.4139400e+00   6.4619557e+03
 7.4186201e+00   6.4246967e+03
 7.4232998e+00   6.4369083e+03
 7.4279799e+00   6.4129866e+03
 7.4326601e+00   6.4276557e+03
 7.4373398e+00   6.4017024e+03
 7.4420199e+00   6.4137671e+03
 7.4467001e+00   6.4031841e+03
 7.4513798e+00   6.4115420e+03
 7.4560599e+00   6.4134190e+03
 7.4607401e+00   6.4011205e+03
 7.4654198e+00   6.4115161e+03
 7.4700999e+00   6.4002678e+03
 7.4747801e+00   6.4060782e+03
 7.4794598e+00   6.3989995e+03
 7.4841399e+00   6.4109827e+03
 7.4888201e+00   6.4298761e+03
 7.4935002e+00   6.4207023e+03
 7.4981799e+00   6.4282281e+03
 7.5028601e+00   6.4508717e+03
 7.5075402e+00   6.4436263e+03
 7.5122199e+00   6.4845136e+03
 7.5169001e+00   6.4927866e+03
 7.5215802e+00   6.5145992e+03
 7.5262599e+00   6.5571549e+03
 7.5309401e+00   6.5928219e+03
 7.5356202e+00   6.6438238e+03
 7.5402999e+00   6.6966522e+03
 7.5449800e+00   6.7836660e+03
 7.5496602e+00   6.8731729e+03
 7.5543399e+00   7.0036573e+03
 7.5590200e+00   7.1651917e+03
 7.5637002e+00   7.4116614e+03
 7.5683799e+00   7.6655499e+03
 7.5730600e+00   8.0368626e+03
 7.5777402e+00   8.4760126e+03
 7.5824199e+00   9.0075032e+03
 7.5871000e+00   9.6187026e+03
 7.5917802e+00   1.0303185e+04
 7.5964599e+00   1.0963158e+04
 7.6011400e+00   1.1568388e+04
 7.6058202e+00   1.1989476e+04
 7.6104999e+00   1.2217626e+04
 7.6151800e+00   1.2207930e+04
 7.6198602e+00   1.1876855e+04
 7.6245399e+00   1.1440900e+04
 7.6292200e+00   1.0786798e+04
 7.6339002e+00   1.0123097e+04
 7.6385798e+00   9.4219363e+03
 7.6432600e+00   8.8534444e+03
 7.6479402e+00   8.3136932e+03
 7.6526198e+00   7.9078268e+03
 7.6573000e+00   7.5369604e+03
 7.6619802e+00   7.2939826e+03
 7.6666598e+00   7.0683742e+03
 7.6713400e+00   6.9451440e+03
 7.6760201e+00   6.7887844e+03
 7.6806998e+00   6.7340266e+03
 7.6853800e+00   6.6239272e+03
 7.6900601e+00   6.5933001e+03
 7.6947398e+00   6.5372847e+03
 7.6994200e+00   6.4986854e+03
 7.7041001e+00   6.4872480e+03
 7.7087798e+00   6.4457060e+03
 7.7134600e+00   6.4395919e+03
 7.7181401e+00   6.3961665e+03
 7.7228198e+00   6.4224853e+03
 7.7275000e+00   6.3670629e+03
 7.7321801e+00   6.3744591e+03
 7.7368598e+00   6.3310944e+03
 7.7415400e+00   6.3893048e+03
 7.7462201e+00   6.3123070e+03
 7.7508998e+00   6.3609192e+03
 7.7555799e+00   6.3072456e+03
 7.7602601e+00   6.3823487e+03
 7.7649398e+00   6.2905904e+03
 7.7696199e+00   6.3596817e+03
 7.7743001e+00   6.3284930e+03
 7.7789798e+00   6.3453296e+03
 7.7836599e+00   6.3526153e+03
 7.7883401e+00   6.3283619e+03
 7.7930198e+00   6.3577818e+03
 7.7976999e+00   6.3302819e+03
 7.8023801e+00   6.3707970e+03
 7.8070598e+00   6.3482112e+03
 7.8117399e+00   6.3760813e+03
 7.8164201e+00   6.3426107e+03
 7.8211002e+00   6.3991253e+03
 7.8257799e+00   6.3316695e+03
 7.8304601e+00   6.4357778e+03
 7.8351402e+00   6.3729232e+03
 7.8398199e+00   6.4416347e+03
 7.8445001e+00   6.3509211e+03
 7.8491802e+00   6.4472775e+03
 7.8538599e+00   6.3668363e+03
 7.8585401e+00   6.5429137e+03
 7.8632202e+00   6.4189800e+03
 7.8678999e+00   6.5030091e+03
 7.8725801e+00   6.4816985e+03
 7.8772602e+00   6.5289090e+03
 7.8819399e+00   6.5651461e+03
 7.8866200e+00   6.6294585e+03
 7.8913002e+00   6.7076467e+03
 7.8959799e+00   6.6454984e+03
 7.9006600e+00   6.8696507e+03
 7.9053402e+00   6.8261067e+03
 7.9100199e+00   7.3302238e+03
 7.9147000e+00   8.2895289e+03
 7.9193802e+00   8.7710277e+03
 7.9240599e+00   8.8640679e+03
 7.9287400e+00   1.4349885e+04
 7.9334202e+00   1.2809895e+04
 7.9380999e+00   1.9937285e+04
 7.9427800e+00   2.0711244e+04
 7.9474602e+00   2.2935187e+04
 7.9521399e+00   1.2859450e+04
 7.9568200e+00   1.6784488e+04
 7.9615002e+00   1.1519178e+04
 7.9661798e+00   1.1237327e+04
 7.9708600e+00   1.0149208e+04
 7.9755402e+00   7.7161159e+03
 7.9802198e+00   7.2491334e+03
 7.9849000e+00   7.0258747e+03
 7.9895802e+00   6.8930285e+03
 7.9942598e+00   6.7986247e+03
 7.9989400e+00   6.6860815e+03
 8.0036201e+00   6.5404276e+03
 8.0082998e+00   6.5948805e+03
 8.0129805e+00   6.5502059e+03
 8.0176601e+00   6.7095355e+03
 8.0223398e+00   6.5895811e+03
 8.0270205e+00   6.7773644e+03
 8.0317001e+00   6.7706499e+03
 8.0363798e+00   7.0544449e+03
 8.0410604e+00   7.2260083e+03
 8.0457401e+00   7.5642717e+03
 8.0504198e+00   7.9343238e+03
 8.0551004e+00   8.3976267e+03
 8.0597801e+00   9.0287018e+03
 8.0644598e+00   9.6291370e+03
 8.0691404e+00   1.0424922e+04
 8.0738201e+00   1.0965501e+04
 8.0784998e+00   1.1527854e+04
 8.0831804e+00   1.1772606e+04
 8.0878601e+00   1.1951487e+04
 8.0925398e+00   1.1688261e+04
 8.0972204e+00   1.1410749e+04
 8.1019001e+00   1.0779588e+04
 8.1065798e+00   1.0213014e+04
 8.1112604e+00   9.4836143e+03
 8.1159401e+00   8.9338081e+03
 8.1206198e+00   8.3058931e+03
 8.1253004e+00   7.8471820e+03
 8.1299801e+00   7.4436449e+03
 8.1346598e+00   7.0889034e+03
 8.1393404e+00   6.8115111e+03
 8.1440201e+00   6.6025758e+03
 8.1486998e+00   6.4751969e+03
 8.1533804e+00   6.2819411e+03
 8.1580601e+00   6.2264216e+03
 8.1627398e+00   6.0785487e+03
 8.1674204e+00   6.0659728e+03
 8.1721001e+00   5.9472495e+03
 8.1767797e+00   5.9607845e+03
 8.1814604e+00   5.8482263e+03
 8.1861401e+00   5.8762814e+03
 8.1908197e+00   5.7838742e+03
 8.1955004e+00   5.7983961e+03
 8.2001801e+00   5.7595385e+03
 8.2048597e+00   5.7592085e+03
 8.2095404e+00   5.7211146e+03
 8.2142200e+00   5.7128005e+03
 8.2188997e+00   5.7068422e+03
 8.2235804e+00   5.6772511e+03
 8.2282600e+00   5.7032362e+03
 8.2329397e+00   5.6448670e+03
 8.2376204e+00   5.6709261e+03
 8.2423000e+00   5.6426372e+03
 8.2469797e+00   5.6431560e+03
 8.2516603e+00   5.6123572e+03
 8.2563400e+00   5.6248581e+03
 8.2610197e+00   5.5829881e+03
 8.2657003e+00   5.5746029e+03
 8.2703800e+00   5.5455632e+03
 8.2750597e+00   5.5807485e+03
 8.2797403e+00   5.5544066e+03
 8.2844200e+00   5.5429484e+03
 8.2890997e+00   5.5298067e+03
 8.2937803e+00   5.5119680e+03
 8.2984600e+00   5.5376547e+03
 8.3031397e+00   5.5014575e+03
 8.3078203e+00   5.5277745e+03
 8.3125000e+00   5.5069475e+03
 8.3171797e+00   5.5251493e+03
 8.3218603e+00   5.5125801e+03
 8.3265400e+00   5.5716985e+03
 8.3312197e+00   5.5641063e+03
 8.3359003e+00   5.6173107e+03
 8.3405800e+00   5.6536742e+03
 8.3452597e+00   5.7354408e+03
 8.3499403e+00   5.8074907e+03
 8.3546200e+00   5.9616668e+03
 8.3592997e+00   6.0938862e+03
 8.3639803e+00   6.3110550e+03
 8.3686600e+00   6.5828760e+03
 8.3733397e+00   6.9481498e+03
 8.3780203e+00   7.3866797e+03
 8.3827000e+00   7.9916099e+03
 8.3873796e+00   8.5575304e+03
 8.3920603e+00   9.3143379e+03
 8.3967400e+00   1.0115674e+04
 8.4014196e+00   1.0756589e+04
 8.4061003e+00   1.1264672e+04
 8.4107800e+00   1.1037782e+04
 8.4154596e+00   1.0317975e+04
 8.4201403e+00   9.5968051e+03
 8.4248199e+00   8.5247809e+03
 8.4294996e+00   7.6879358e+03
 8.4341803e+00   7.0302336e+03
 8.4388599e+00   6.5523169e+03
 8.4435396e+00   6.1859850e+03
 8.4482203e+00   5.8896089e+03
 8.4528999e+00   5.7330585e+03
 8.4575796e+00   5.6258729e+03
 8.4622602e+00   5.5096531e+03
 8.4669399e+00   5.4520071e+03
 8.4716196e+00   5.3961005e+03
 8.4763002e+00   5.3670185e+03
 8.4809799e+00   5.3211570e+03
 8.4856596e+00   5.3167742e+03
 8.4903402e+00   5.2640961e+03
 8.4950199e+00   5.2784852e+03
 8.4996996e+00   5.2479118e+03
 8.5043802e+00   5.2437930e+03
 8.5090599e+00   5.2148747e+03
 8.5137396e+00   5.2174194e+03
 8.5184202e+00   5.1887225e+03
 8.5230999e+00   5.1963454e+03
 8.5277796e+00   5.1790345e+03
 8.5324602e+00   5.1742368e+03
 8.5371399e+00   5.1693549e+03
 8.5418196e+00   5.1766401e+03
 8.5465002e+00   5.1576377e+03
 8.5511799e+00   5.1610979e+03
 8.5558596e+00   5.1647748e+03
 8.5605402e+00   5.1360197e+03
 8.5652199e+00   5.1549498e+03
 8.5698996e+00   5.1177418e+03
 8.5745802e+00   5.1505327e+03
 8.5792599e+00   5.0993624e+03
 8.5839396e+00   5.1303429e+03
 8.5886202e+00   5.0929433e+03
 8.5932999e+00   5.1147072e+03
 8.5979795e+00   5.0875185e+03
 8.6026602e+00   5.0888760e+03
 8.6073399e+00   5.1002340e+03
 8.6120195e+00   5.0969001e+03
 8.6167002e+00   5.0988623e+03
 8.6213799e+00   5.0777029e+03
 8.6260595e+00   5.0854469e+03
 8.6307402e+00   5.0637057e+03
 8.6354198e+00   5.0727850e+03
 8.6400995e+00   5.0734089e+03
 8.6447802e+00   5.0687969e+03
 8.6494598e+00   5.0437220e+03
 8.6541405e+00   5.0738826e+03
 8.6588202e+00   5.0474315e+03
 8.6634998e+00   5.0589067e+03
 8.6681805e+00   5.0544000e+03
 8.6728601e+00   5.0588049e+03
 8.6775398e+00   5.0558771e+03
 8.6822205e+00   5.0420510e+03
 8.6869001e+00   5.0421918e+03
 8.6915798e+00   5.0423948e+03
 8.6962605e+00   5.0434218e+03
 8.7009401e+00   5.0479033e+03
 8.7056198e+00   5.0512951e+03
 8.7103004e+00   5.0403271e+03
 8.7149801e+00   5.0501254e+03
 8.7196598e+00   5.0436866e+03
 8.7243404e+00   5.0421310e+03
 8.7290201e+00   5.0589122e+03
 8.7336998e+00   5.0469909e+03
 8.7383804e+00   5.0522991e+03
 8.7430601e+00   5.0646751e+03
 8.7477398e+00   5.0474924e+03
 8.7524204e+00   5.0657026e+03
 8.7571001e+00   5.0740998e+03
 8.7617798e+00   5.0797042e+03
 8.7664604e+00   5.1007517e+03
 8.7711401e+00   5.1005653e+03
 8.7758198e+00   5.1115091e+03
 8.7805004e+00   5.1626816e+03
 8.7851801e+00   5.1760261e+03
 8.7898598e+00   5.2128005e+03
 8.7945404e+00   5.2770366e+03
 8.7992201e+00   5.3127396e+03
 8.8038998e+00   5.4056065e+03
 8.8085804e+00   5.4921006e+03
 8.8132601e+00   5.6066611e+03
 8.8179398e+00   5.7562724e+03
 8.8226204e+00   5.9182689e+03
 8.8273001e+00   6.0825440e+03
 8.8319798e+00   6.3183716e+03
 8.8366604e+00   6.4890190e+03
 8.8413401e+00   6.7623748e+03
 8.8460197e+00   6.9874186e+03
 8.8507004e+00   7.3732138e+03
 8.8553801e+00   7.5317689e+03
 8.8600597e+00   7.9284149e+03
 8.8647404e+00   7.6652730e+03
 8.8694201e+00   8.4660393e+03
 8.8740997e+00   8.0980556e+03
 8.8787804e+00   7.0453274e+03
 8.8834600e+00   7.4828150e+03
 8.8881397e+00   6.2822247e+03
 8.8928204e+00   5.9368317e+03
 8.8975000e+00   5.7014987e+03
 8.9021797e+00   5.4406202e+03
 8.9068604e+00   5.3255103e+03
 8.9115400e+00   5.2402924e+03
 8.9162197e+00   5.1756098e+03
 8.9209003e+00   5.1325143e+03
 8.9255800e+00   5.1246362e+03
 8.9302597e+00   5.0995003e+03
 8.9349403e+00   5.0838255e+03
 8.9396200e+00   5.0594838e+03
 8.9442997e+00   5.0845926e+03
 8.9489803e+00   5.0683377e+03
 8.9536600e+00   5.0810216e+03
 8.9583397e+00   5.0752566e+03
 8.9630203e+00   5.1027761e+03
 8.9677000e+00   5.1107222e+03
 8.9723797e+00   5.1566857e+03
 8.9770603e+00   5.1825848e+03
 8.9817400e+00   5.2345300e+03
 8.9864197e+00   5.2713951e+03
 8.9911003e+00   5.3345341e+03
 8.9957800e+00   5.4004139e+03
 9.0004597e+00   5.4755764e+03
 9.0051403e+00   5.5529697e+03
 9.0098200e+00   5.5965419e+03
 9.0144997e+00   5.6634105e+03
 9.0191803e+00   5.6858915e+03
 9.0238600e+00   5.6818835e+03
 9.0285397e+00   5.6599394e+03
 9.0332203e+00   5.6095992e+03
 9.0379000e+00   5.5345178e+03
 9.0425797e+00   5.4554049e+03
 9.0472603e+00   5.3638910e+03
 9.0519400e+00   5.2859148e+03
 9.0566196e+00   5.1980834e+03
 9.0613003e+00   5.1336780e+03
 9.0659800e+00   5.0727208e+03
 9.0706596e+00   5.0478576e+03
 9.0753403e+00   4.9955749e+03
 9.0800200e+00   4.9825379e+03
 9.0846996e+00   4.9454382e+03
 9.0893803e+00   4.9380418e+03
 9.0940599e+00   4.9271225e+03
 9.0987396e+00   4.9276952e+03
 9.1034203e+00   4.9066876e+03
 9.1080999e+00   4.9049129e+03
 9.1127796e+00   4.9075507e+03
 9.1174603e+00   4.9051331e+03
 9.1221399e+00   4.8889171e+03
 9.1268196e+00   4.8971914e+03
 9.1315002e+00   4.8902392e+03
 9.1361799e+00   4.8852438e+03
 9.1408596e+00   4.8998934e+03
 9.1455402e+00   4.8976510e+03
 9.1502199e+00   4.9089191e+03
 9.1548996e+00   4.9021344e+03
 9.1595802e+00   4.9215417e+03
 9.1642599e+00   4.9147341e+03
 9.1689396e+00   4.9288181e+03
 9.1736202e+00   4.9366561e+03
 9.1782999e+00   4.9599733e+03
 9.1829796e+00   4.9713250e+03
 9.1876602e+00   4.9838112e+03
 9.1923399e+00   5.0229717e+03
 9.1970196e+00   5.0613263e+03
 9.2017002e+00   5.1258315e+03
 9.2063799e+00   5.1626649e+03
 9.2110596e+00   5.2412559e+03
 9.2157402e+00   5.3414290e+03
 9.2204199e+00   5.4752261e+03
 9.2250996e+00   5.6279902e+03
 9.2297802e+00   5.8000227e+03
 9.2344599e+00   6.0059605e+03
 9.2391396e+00   6.2368819e+03
 9.2438202e+00   6.4648974e+03
 9.2484999e+00   6.6887432e+03
 9.2531796e+00   6.8773043e+03
 9.2578602e+00   6.9901868e+03
 9.2625399e+00   7.0391089e+03
 9.2672195e+00   7.0194509e+03
 9.2719002e+00   6.9045343e+03
 9.2765799e+00   6.7379360e+03
 9.2812595e+00   6.5384692e+03
 9.2859402e+00   6.3049867e+03
 9.2906199e+00   6.0944882e+03
 9.2952995e+00   5.8830849e+03
 9.2999802e+00   5.7014776e+03
 9.3046598e+00   5.5527439e+03
 9.3093395e+00   5.4321477e+03
 9.3140202e+00   5.3440641e+03
 9.3186998e+00   5.2681804e+03
 9.3233805e+00   5.2163443e+03
 9.3280602e+00   5.1966406e+03
 9.3327398e+00   5.1722248e+03
 9.3374205e+00   5.1715259e+03
 9.3421001e+00   5.1945269e+03
 9.3467798e+00   5.2054906e+03
 9.3514605e+00   5.2378687e+03
 9.3561401e+00   5.2773093e+03
 9.3608198e+00   5.3117438e+03
 9.3655005e+00   5.3338486e+03
 9.3701801e+00   5.3406969e+03
 9.3748598e+00   5.3324930e+03
 9.3795404e+00   5.3323181e+03
 9.3842201e+00   5.3133355e+03
 9.3888998e+00   5.2803938e+03
 9.3935804e+00   5.2592581e+03
 9.3982601e+00   5.2429920e+03
 9.4029398e+00   5.2350796e+03
 9.4076204e+00   5.2239438e+03
 9.4123001e+00   5.2438592e+03
 9.4169798e+00   5.2731396e+03
 9.4216604e+00   5.3106071e+03
 9.4263401e+00   5.3754337e+03
 9.4310198e+00   5.4710434e+03
 9.4357004e+00   5.5607325e+03
 9.4403801e+00   5.6882689e+03
 9.4450598e+00   5.7964917e+03
 9.4497404e+00   5.9361490e+03
 9.4544201e+00   6.0496192e+03
 9.4590998e+00   6.1393033e+03
 9.4637804e+00   6.2189118e+03
 9.4684601e+00   6.2653917e+03
 9.4731398e+00   6.2997700e+03
 9.4778204e+00   6.3286910e+03
 9.4825001e+00   6.3227237e+03
 9.4871798e+00   6.3181297e+03
 9.4918604e+00   6.2949348e+03
 9.4965401e+00   6.2394590e+03
 9.5012197e+00   6.1900724e+03
 9.5059004e+00   6.0831888e+03
 9.5105801e+00   5.9810514e+03
 9.5152597e+00   5.8627879e+03
 9.5199404e+00   5.7328630e+03
 9.5246201e+00   5.6054970e+03
 9.5292997e+00   5.5107226e+03
 9.5339804e+00   5.3766540e+03
 9.5386600e+00   5.3185990e+03
 9.5433397e+00   5.2343681e+03
 9.5480204e+00   5.1781360e+03
 9.5527000e+00   5.1394750e+03
 9.5573797e+00   5.1194257e+03
 9.5620604e+00   5.0588441e+03
 9.5667400e+00   5.0607185e+03
 9.5714197e+00   5.0157384e+03
 9.5761003e+00   5.0039377e+03
 9.5807800e+00   4.9883917e+03
 9.5854597e+00   4.9735004e+03
 9.5901403e+00   4.9788839e+03
 9.5948200e+00   4.9654475e+03
 9.5994997e+00   4.9725030e+03
 9.6041803e+00   4.9654839e+03
 9.6088600e+00   4.9602816e+03
 9.6135397e+00   4.9566494e+03
 9.6182203e+00   4.9624487e+03
 9.6229000e+00   4.9644147e+03
 9.6275797e+00   4.9627488e+03
 9.6322603e+00   4.9713381e+03
 9.6369400e+00   4.9698959e+03
 9.6416197e+00   4.9658358e+03
 9.6463003e+00   4.9776701e+03
 9.6509800e+00   4.9718413e+03
 9.6556597e+00   4.9902518e+03
 9.6603403e+00   4.9909839e+03
 9.6650200e+00   5.0041068e+03
 9.6696997e+00   5.0137976e+03
 9.6743803e+00   5.0491920e+03
 9.6790600e+00   5.0896801e+03
 9.6837397e+00   5.1147548e+03
 9.6884203e+00   5.2352752e+03
 9.6931000e+00   5.3892708e+03
 9.6977797e+00   5.4360128e+03
 9.7024603e+00   6.1127890e+03
 9.7071400e+00   6.3420346e+03
 9.7118196e+00   6.5789009e+03
 9.7165003e+00   6.5212924e+03
 9.7211800e+00   6.8044080e+03
 9.7258596e+00   6.0640093e+03
 9.7305403e+00   6.0115747e+03
 9.7352200e+00   5.5727545e+03
 9.7398996e+00   5.6998148e+03
 9.7445803e+00   5.4027861e+03
 9.7492599e+00   5.4125877e+03
 9.7539396e+00   5.4008716e+03
 9.7586203e+00   5.4265366e+03
 9.7632999e+00   5.5073336e+03
 9.7679796e+00   5.6073147e+03
 9.7726603e+00   5.7422009e+03
 9.7773399e+00   5.9219437e+03
 9.7820196e+00   6.1226292e+03
 9.7867002e+00   6.3534584e+03
 9.7913799e+00   6.5946957e+03
 9.7960596e+00   6.8545064e+03
 9.8007402e+00   7.0975936e+03
 9.8054199e+00   7.3218355e+03
 9.8100996e+00   7.4793386e+03
 9.8147802e+00   7.5781317e+03
 9.8194599e+00   7.6446318e+03
 9.8241396e+00   7.6677579e+03
 9.8288202e+00   7.6510143e+03
 9.8334999e+00   7.9292326e+03
 9.8381796e+00   8.2225490e+03
 9.8428602e+00   8.8121132e+03
 9.8475399e+00   9.5019545e+03
 9.8522196e+00   1.0138200e+04
 9.8569002e+00   1.1258381e+04
 9.8615799e+00   1.1686979e+04
 9.8662596e+00   1.1814346e+04
 9.8709402e+00   1.1070455e+04
 9.8756199e+00   1.0164560e+04
 9.8802996e+00   8.9410441e+03
 9.8849802e+00   7.7292101e+03
 9.8896599e+00   6.9644706e+03
 9.8943396e+00   6.4941035e+03
 9.8990202e+00   6.0281128e+03
 9.9036999e+00   5.7002989e+03
 9.9083796e+00   5.4812340e+03
 9.9130602e+00   5.3398981e+03
 9.9177399e+00   5.2690648e+03
 9.9224195e+00   5.2015768e+03
 9.9271002e+00   5.1810164e+03
 9.9317799e+00   5.1394389e+03
 9.9364595e+00   5.1232437e+03
 9.9411402e+00   5.1117480e+03
 9.9458199e+00   5.0968428e+03
 9.9504995e+00   5.0953685e+03
 9.9551802e+00   5.0869012e+03
 9.9598598e+00   5.0907034e+03
 9.9645395e+00   5.0810903e+03
 9.9692202e+00   5.0806600e+03
 9.9738998e+00   5.0789904e+03
 9.9785805e+00   5.0628970e+03
 9.9832602e+00   5.0728492e+03
 9.9879398e+00   5.0847458e+03
 9.9926205e+00   5.0778455e+03
 9.9973001e+00   5.0938654e+03
 1.0001980e+01   5.0846213e+03
 1.0006660e+01   5.0896432e+03
 1.0011340e+01   5.0836594e+03
 1.0016020e+01   5.0860966e+03
 1.0020700e+01   5.0923206e+03
 1.0025380e+01   5.0933289e+03
 1.0030060e+01   5.0940452e+03
 1.0034740e+01   5.1113616e+03
 1.0039420e+01   5.1226154e+03
 1.0044100e+01   5.1302008e+03
 1.0048780e+01   5.1438436e+03
 1.0053460e+01   5.1624255e+03
 1.0058140e+01   5.1881791e+03
 1.0062820e+01   5.1825144e+03
 1.0067500e+01   5.2058764e+03
 1.0072180e+01   5.2045416e+03
 1.0076860e+01   5.2126339e+03
 1.0081540e+01   5.1941326e+03
 1.0086220e+01   5.1948166e+03
 1.0090900e+01   5.1786167e+03
 1.0095580e+01   5.1599831e+03
 1.0100260e+01   5.1293866e+03
 1.0104940e+01   5.1240795e+03
 1.0109620e+01   5.1099438e+03
 1.0114300e+01   5.0906276e+03
 1.0118980e+01   5.0880647e+03
 1.0123660e+01   5.0684996e+03
 1.0128340e+01   5.0617513e+03
 1.0133020e+01   5.0551558e+03
 1.0137700e+01   5.0509768e+03
 1.0142380e+01   5.0679451e+03
 1.0147060e+01   5.0563907e+03
 1.0151740e+01   5.0439683e+03
 1.0156420e+01   5.0458573e+03
 1.0161100e+01   5.0493865e+03
 1.0165780e+01   5.0481344e+03
 1.0170460e+01   5.0636373e+03
 1.0175140e+01   5.0595748e+03
 1.0179820e+01   5.0587245e+03
 1.0184500e+01   5.0481498e+03
 1.0189180e+01   5.0383516e+03
 1.0193860e+01   5.0597691e+03
 1.0198540e+01   5.0622498e+03
 1.0203220e+01   5.0515795e+03
 1.0207900e+01   5.0704396e+03
 1.0212580e+01   5.0611510e+03
 1.0217260e+01   5.0766468e+03
 1.0221940e+01   5.0628636e+03
 1.0226620e+01   5.0728672e+03
 1.0231300e+01   5.0867171e+03
 1.0235980e+01   5.0925354e+03
 1.0240660e+01   5.1031949e+03
 1.0245340e+01   5.1094724e+03
 1.0250020e+01   5.1218639e+03
 1.0254700e+01   5.1631452e+03
 1.0259380e+01   5.1945445e+03
 1.0264060e+01   5.2649320e+03
 1.0268740e+01   5.3966049e+03
 1.0273420e+01   5.4585042e+03
 1.0278100e+01   5.4000549e+03
 1.0282780e+01   5.3610149e+03
 1.0287460e+01   5.4988740e+03
 1.0292140e+01   5.6318127e+03
 1.0296820e+01   5.7023542e+03
 1.0301500e+01   5.8037775e+03
 1.0306180e+01   5.8438372e+03
 1.0310860e+01   5.7616201e+03
 1.0315540e+01   5.7172592e+03
 1.0320220e+01   5.5866185e+03
 1.0324900e+01   5.6070058e+03
 1.0329580e+01   5.7583344e+03
 1.0334260e+01   5.5410252e+03
 1.0338940e+01   5.3710453e+03
 1.0343620e+01   5.3153103e+03
 1.0348300e+01   5.2311259e+03
 1.0352980e+01   5.1884740e+03
 1.0357660e+01   5.1559581e+03
 1.0362340e+01   5.1232954e+03
 1.0367020e+01   5.1500923e+03
 1.0371700e+01   5.1048905e+03
 1.0376380e+01   5.1086415e+03
 1.0381060e+01   5.1163061e+03
 1.0385740e+01   5.0957421e+03
 1.0390420e+01   5.1203371e+03
 1.0395100e+01   5.1028200e+03
 1.0399780e+01   5.0944929e+03
 1.0404460e+01   5.1256746e+03
 1.0409140e+01   5.0973884e+03
 1.0413820e+01   5.0948143e+03
 1.0418500e+01   5.1188650e+03
 1.0423180e+01   5.0941818e+03
 1.0427860e+01   5.1213049e+03
 1.0432540e+01   5.0925321e+03
 1.0437220e+01   5.0942748e+03
 1.0441900e+01   5.1450554e+03
 1.0446580e+01   5.1262750e+03
 1.0451260e+01   5.1309414e+03
 1.0455940e+01   5.1598305e+03
 1.0460620e+01   5.1829461e+03
 1.0465300e+01   5.1888599e+03
 1.0469980e+01   5.2592305e+03
 1.0474660e+01   5.4576283e+03
 1.0479340e+01   5.4403230e+03
 1.0484020e+01   5.6281718e+03
 1.0488700e+01   5.6543064e+03
 1.0493380e+01   5.9030115e+03
 1.0498060e+01   6.0067215e+03
 1.0502740e+01   5.8845465e+03
 1.0507420e+01   5.8902974e+03
 1.0512100e+01   5.7232095e+03
 1.0516780e+01   5.5925670e+03
 1.0521460e+01   5.4941188e+03
 1.0526140e+01   5.3432740e+03
 1.0530820e+01   5.3593882e+03
 1.0535500e+01   5.2642819e+03
 1.0540180e+01   5.2608871e+03
 1.0544860e+01   5.2135804e+03
 1.0549540e+01   5.2043211e+03
 1.0554220e+01   5.2243890e+03
 1.0558900e+01   5.1848075e+03
 1.0563580e+01   5.1780534e+03
 1.0568260e+01   5.1549690e+03
 1.0572940e+01   5.1213265e+03
 1.0577620e+01   5.1280930e+03
 1.0582300e+01   5.0714039e+03
 1.0586980e+01   5.0893494e+03
 1.0591660e+01   5.0686758e+03
 1.0596340e+01   5.0271053e+03
 1.0601020e+01   5.0399105e+03
 1.0605700e+01   5.0267275e+03
 1.0610380e+01   5.0124821e+03
 1.0615060e+01   5.0111674e+03
 1.0619740e+01   4.9973934e+03
 1.0624420e+01   4.9887465e+03
 1.0629100e+01   5.0008236e+03
 1.0633780e+01   4.9905702e+03
 1.0638460e+01   4.9925795e+03
 1.0643140e+01   4.9760187e+03
 1.0647820e+01   4.9785720e+03
 1.0652500e+01   4.9983330e+03
 1.0657180e+01   4.9960710e+03
 1.0661860e+01   5.0010404e+03
 1.0666540e+01   5.0126093e+03
 1.0671220e+01   5.0195675e+03
 1.0675900e+01   5.0421937e+03
 1.0680580e+01   5.0574203e+03
 1.0685260e+01   5.0766074e+03
 1.0689940e+01   5.1352508e+03
 1.0694620e+01   5.1527613e+03
 1.0699300e+01   5.2015032e+03
 1.0703980e+01   5.2430499e+03
 1.0708660e+01   5.2820907e+03
 1.0713340e+01   5.3178838e+03
 1.0718020e+01   5.3579740e+03
 1.0722700e+01   5.3689244e+03
 1.0727380e+01   5.3935915e+03
 1.0732060e+01   5.3563655e+03
 1.0736740e+01   5.3361165e+03
 1.0741420e+01   5.2887119e+03
 1.0746100e+01   5.2513510e+03
 1.0750780e+01   5.1981003e+03
 1.0755460e+01   5.1534067e+03
 1.0760140e+01   5.1017108e+03
 1.0764820e+01   5.0635042e+03
 1.0769500e+01   5.0276650e+03
 1.0774180e+01   4.9884439e+03
 1.0778860e+01   4.9771265e+03
 1.0783540e+01   4.9402363e+03
 1.0788220e+01   4.9316480e+03
 1.0792900e+01   4.9084756e+03
 1.0797580e+01   4.9059375e+03
 1.0802260e+01   4.8865264e+03
 1.0806940e+01   4.8797571e+03
 1.0811620e+01   4.8914281e+03
 1.0816300e+01   4.8732499e+03
 1.0820980e+01   4.8759264e+03
 1.0825660e+01   4.8642709e+03
 1.0830340e+01   4.8689216e+03
 1.0835020e+01   4.8673294e+03
 1.0839700e+01   4.8599494e+03
 1.0844380e+01   4.8610345e+03
 1.0849060e+01   4.8545621e+03
 1.0853740e+01   4.8332227e+03
 1.0858420e+01   4.8366629e+03
 1.0863100e+01   4.8301776e+03
 1.0867780e+01   4.8285536e+03
 1.0872460e+01   4.8194659e+03
 1.0877140e+01   4.8048425e+03
 1.0881820e+01   4.7977110e+03
 1.0886500e+01   4.7964580e+03
 1.0891180e+01   4.7907981e+03
 1.0895860e+01   4.7815031e+03
 1.0900540e+01   4.7905420e+03
 1.0905220e+01   4.7719710e+03
 1.0909900e+01   4.7805226e+03
 1.0914580e+01   4.7559961e+03
 1.0919260e+01   4.7588679e+03
 1.0923940e+01   4.7453468e+03
 1.0928620e+01   4.7406714e+03
 1.0933300e+01   4.7447214e+03
 1.0937980e+01   4.7382156e+03
 1.0942660e+01   4.7333762e+03
 1.0947340e+01   4.7312750e+03
 1.0952020e+01   4.7325528e+03
 1.0956700e+01   4.7235332e+03
 1.0961380e+01   4.7371718e+03
 1.0966060e+01   4.7363634e+03
 1.0970740e+01   4.7311548e+03
 1.0975420e+01   4.7206473e+03
 1.0980100e+01   4.7276033e+03
 1.0984780e+01   4.7239694e+03
 1.0989460e+01   4.7184835e+03
 1.0994140e+01   4.7157471e+03
 1.0998820e+01   4.7314438e+03
 1.1003500e+01   4.7113542e+03
 1.1008180e+01   4.7191208e+03
 1.1012860e+01   4.7300381e+03
 1.1017540e+01   4.7261299e+03
 1.1022220e+01   4.7375855e+03
 1.1026900e+01   4.7397253e+03
 1.1031580e+01   4.7546805e+03
 1.1036260e+01   4.7571670e+03
 1.1040940e+01   4.7777072e+03
 1.1045620e+01   4.7950206e+03
 1.1050300e+01   4.8123404e+03
 1.1054980e+01   4.8419301e+03
 1.1059660e+01   4.8707361e+03
 1.1064340e+01   4.9093122e+03
 1.1069020e+01   4.9743038e+03
 1.1073700e+01   5.0190552e+03
 1.1078380e+01   5.0878163e+03
 1.1083060e+01   5.1842183e+03
 1.1087740e+01   5.2825091e+03
 1.1092420e+01   5.3938876e+03
 1.1097100e+01   5.5203758e+03
 1.1101780e+01   5.6072947e+03
 1.1106460e+01   5.6970492e+03
 1.1111140e+01   5.7561859e+03
 1.1115820e+01   5.7911740e+03
 1.1120500e+01   5.7860762e+03
 1.1125180e+01   5.7394481e+03
 1.1129860e+01   5.6662943e+03
 1.1134540e+01   5.5707197e+03
 1.1139220e+01   5.4491133e+03
 1.1143900e+01   5.3483209e+03
 1.1148580e+01   5.2353950e+03
 1.1153260e+01   5.1284413e+03
 1.1157940e+01   5.0483435e+03
 1.1162620e+01   4.9591460e+03
 1.1167300e+01   4.8996842e+03
 1.1171980e+01   4.8617372e+03
 1.1176660e+01   4.7927928e+03
 1.1181340e+01   4.7781796e+03
 1.1186020e+01   4.7436228e+03
 1.1190700e+01   4.7273716e+03
 1.1195380e+01   4.7393654e+03
 1.1200060e+01   4.6877365e+03
 1.1204740e+01   4.6821979e+03
 1.1209420e+01   4.7830161e+03
 1.1214100e+01   4.6845506e+03
 1.1218780e+01   4.9723326e+03
 1.1223460e+01   4.6961980e+03
 1.1228140e+01   4.6891752e+03
 1.1232820e+01   4.8395733e+03
 1.1237500e+01   4.6906874e+03
 1.1242180e+01   4.6949375e+03
 1.1246860e+01   4.7124823e+03
 1.1251540e+01   4.6865608e+03
 1.1256220e+01   4.6995476e+03
 1.1260900e+01   4.6875742e+03
 1.1265580e+01   4.6920455e+03
 1.1270260e+01   4.7058301e+03
 1.1274940e+01   4.6829813e+03
 1.1279620e+01   4.7009993e+03
 1.1284300e+01   4.6901962e+03
 1.1288980e+01   4.6811402e+03
 1.1293660e+01   4.6842259e+03
 1.1298340e+01   4.6652744e+03
 1.1303020e+01   4.6582000e+03
 1.1307700e+01   4.6284117e+03
 1.1312380e+01   4.6181777e+03
 1.1317060e+01   4.5959018e+03
 1.1321740e+01   4.5875601e+03
 1.1326420e+01   4.5718582e+03
 1.1331100e+01   4.5598746e+03
 1.1335780e+01   4.5450997e+03
 1.1340460e+01   4.5369158e+03
 1.1345140e+01   4.5347815e+03
 1.1349820e+01   4.5151564e+03
 1.1354500e+01   4.5334139e+03
 1.1359180e+01   4.5084873e+03
 1.1363860e+01   4.5203447e+03
 1.1368540e+01   4.5046772e+03
 1.1373220e+01   4.5044190e+03
 1.1377900e+01   4.5081605e+03
 1.1382580e+01   4.4944367e+03
 1.1387260e+01   4.4938469e+03
 1.1391940e+01   4.5033083e+03
 1.1396620e+01   4.4924578e+03
 1.1401300e+01   4.5039718e+03
 1.1405980e+01   4.4924758e+03
 1.1410660e+01   4.4961354e+03
 1.1415340e+01   4.4982097e+03
 1.1420020e+01   4.4890896e+03
 1.1424700e+01   4.5006100e+03
 1.1429380e+01   4.5114154e+03
 1.1434060e+01   4.5039181e+03
 1.1438740e+01   4.5173213e+03
 1.1443420e+01   4.5193132e+03
 1.1448100e+01   4.5262592e+03
 1.1452780e+01   4.5467297e+03
 1.1457460e+01   4.5528715e+03
 1.1462140e+01   4.5668747e+03
 1.1466820e+01   4.5942131e+03
 1.1471500e+01   4.6110400e+03
 1.1476180e+01   4.6478237e+03
 1.1480860e+01   4.6825153e+03
 1.1485540e+01   4.7287494e+03
 1.1490220e+01   4.7691243e+03
 1.1494900e+01   4.8172447e+03
 1.1499580e+01   4.8732457e+03
 1.1504260e+01   4.9299300e+03
 1.1508940e+01   4.9625447e+03
 1.1513620e+01   5.0064735e+03
 1.1518300e+01   5.0319084e+03
 1.1522980e+01   5.0459279e+03
 1.1527660e+01   5.0487524e+03
 1.1532340e+01   5.0051601e+03
 1.1537020e+01   4.9871137e+03
 1.1541700e+01   4.9378699e+03
 1.1546380e+01   4.8735915e+03
 1.1551060e+01   4.8180471e+03
 1.1555740e+01   4.7475843e+03
 1.1560420e+01   4.7103531e+03
 1.1565100e+01   4.6513279e+03
 1.1569780e+01   4.6053906e+03
 1.1574460e+01   4.5735985e+03
 1.1579140e+01   4.5460011e+03
 1.1583820e+01   4.5113698e+03
 1.1588500e+01   4.4922991e+03
 1.1593180e+01   4.4732213e+03
 1.1597860e+01   4.4706193e+03
 1.1602540e+01   4.4508829e+03
 1.1607220e+01   4.4392133e+03
 1.1611900e+01   4.4405815e+03
 1.1616580e+01   4.4231211e+03
 1.1621260e+01   4.4249925e+03
 1.1625940e+01   4.4172032e+03
 1.1630620e+01   4.4034917e+03
 1.1635300e+01   4.4044911e+03
 1.1639980e+01   4.3935828e+03
 1.1644660e+01   4.3847419e+03
 1.1649340e+01   4.3867748e+03
 1.1654020e+01   4.3769372e+03
 1.1658700e+01   4.3610785e+03
 1.1663380e+01   4.3630352e+03
 1.1668060e+01   4.3569075e+03
 1.1672740e+01   4.3580908e+03
 1.1677420e+01   4.3476922e+03
 1.1682100e+01   4.3441296e+03
 1.1686780e+01   4.3459508e+03
 1.1691460e+01   4.3340203e+03
 1.1696140e+01   4.3316361e+03
 1.1700820e+01   4.3351839e+03
 1.1705500e+01   4.3244203e+03
 1.1710180e+01   4.3320191e+03
 1.1714860e+01   4.3206812e+03
 1.1719540e+01   4.3259996e+03
 1.1724220e+01   4.3238220e+03
 1.1728900e+01   4.3122107e+03
 1.1733580e+01   4.3195134e+03
 1.1738260e+01   4.3073940e+03
 1.1742940e+01   4.3087723e+03
 1.1747620e+01   4.3108654e+03
 1.1752300e+01   4.3047926e+03
 1.1756980e+01   4.3107245e+03
 1.1761660e+01   4.3063760e+03
 1.1766340e+01   4.2906962e+03
 1.1771020e+01   4.3030274e+03
 1.1775700e+01   4.2912457e+03
 1.1780380e+01   4.2907197e+03
 1.1785060e+01   4.2910523e+03
 1.1789740e+01   4.2891459e+03
 1.1794420e+01   4.2972586e+03
 1.1799100e+01   4.2875838e+03
 1.1803780e+01   4.2811369e+03
 1.1808460e+01   4.2896408e+03
 1.1813140e+01   4.2840120e+03
 1.1817820e+01   4.2832583e+03
 1.1822500e+01   4.2827399e+03
 1.1827180e+01   4.2856802e+03
 1.1831860e+01   4.2885914e+03
 1.1836540e+01   4.2820441e+03
 1.1841220e+01   4.2900542e+03
 1.1845900e+01   4.2881629e+03
 1.1850580e+01   4.2829477e+03
 1.1855260e+01   4.2976585e+03
 1.1859940e+01   4.3087022e+03
 1.1864620e+01   4.3175585e+03
 1.1869300e+01   4.3295360e+03
 1.1873980e+01   4.3556474e+03
 1.1878660e+01   4.3641417e+03
 1.1883340e+01   4.3888777e+03
 1.1888020e+01   4.4062857e+03
 1.1892700e+01   4.4507947e+03
 1.1897380e+01   4.5202172e+03
 1.1902060e+01   4.5247516e+03
 1.1906740e+01   4.5378756e+03
 1.1911420e+01   4.6139552e+03
 1.1916100e+01   4.5301424e+03
 1.1920780e+01   4.4722763e+03
 1.1925460e+01   4.5330121e+03
 1.1930140e+01   4.4167825e+03
 1.1934820e+01   4.4280313e+03
 1.1939500e+01   4.4141112e+03
 1.1944180e+01   4.3832396e+03
 1.1948860e+01   4.3858906e+03
 1.1953540e+01   4.4008196e+03
 1.1958220e+01   4.4035582e+03
 1.1962900e+01   4.4201724e+03
 1.1967580e+01   4.4611472e+03
 1.1972260e+01   4.4919649e+03
 1.1976940e+01   4.5284743e+03
 1.1981620e+01   4.5678495e+03
 1.1986300e+01   4.5974714e+03
 1.1990980e+01   4.6216027e+03
 1.1995660e+01   4.6454645e+03
 1.2000340e+01   4.6596756e+03
 1.2005020e+01   4.6432994e+03
 1.2009700e+01   4.6348150e+03
 1.2014380e+01   4.6138676e+03
 1.2019060e+01   4.5884361e+03
 1.2023740e+01   4.5381041e+03
 1.2028420e+01   4.5266360e+03
 1.2033100e+01   4.4774417e+03
 1.2037780e+01   4.4533353e+03
 1.2042460e+01   4.4329592e+03
 1.2047140e+01   4.4201644e+03
 1.2051820e+01   4.4248609e+03
 1.2056500e+01   4.4084256e+03
 1.2061180e+01   4.4316261e+03
 1.2065860e+01   4.4496017e+03
 1.2070540e+01   4.4669001e+03
 1.2075220e+01   4.5058443e+03
 1.2079900e+01   4.5660601e+03
 1.2084580e+01   4.6155313e+03
 1.2089260e+01   4.6934192e+03
 1.2093940e+01   4.7644470e+03
 1.2098620e+01   4.8637197e+03
 1.2103300e+01   4.9530126e+03
 1.2107980e+01   5.0508558e+03
 1.2112660e+01   5.1581991e+03
 1.2117340e+01   5.2315664e+03
 1.2122020e+01   5.2816122e+03
 1.2126700e+01   5.3205919e+03
 1.2131380e+01   5.3179340e+03
 1.2136060e+01   5.2753175e+03
 1.2140740e+01   5.2138188e+03
 1.2145420e+01   5.1341173e+03
 1.2150100e+01   5.0426213e+03
 1.2154780e+01   4.9201877e+03
 1.2159460e+01   4.8209038e+03
 1.2164140e+01   4.7201470e+03
 1.2168820e+01   4.6233573e+03
 1.2173500e+01   4.5470165e+03
 1.2178180e+01   4.4797732e+03
 1.2182860e+01   4.4035476e+03
 1.2187540e+01   4.3590769e+03
 1.2192220e+01   4.3254374e+03
 1.2196900e+01   4.2829406e+03
 1.2201580e+01   4.2484788e+03
 1.2206260e+01   4.2133035e+03
 1.2210940e+01   4.2033160e+03
 1.2215620e+01   4.1817159e+03
 1.2220300e+01   4.1703452e+03
 1.2224980e+01   4.1590285e+03
 1.2229660e+01   4.1424530e+03
 1.2234340e+01   4.1367486e+03
 1.2239020e+01   4.1188362e+03
 1.2243700e+01   4.1221642e+03
 1.2248380e+01   4.1025181e+03
 1.2253060e+01   4.1080050e+03
 1.2257740e+01   4.1069511e+03
 1.2262420e+01   4.1006073e+03
 1.2267100e+01   4.0840263e+03
 1.2271780e+01   4.0778445e+03
 1.2276460e+01   4.0870194e+03
 1.2281140e+01   4.0748162e+03
 1.2285820e+01   4.0842547e+03
 1.2290500e+01   4.0671606e+03
 1.2295180e+01   4.0804357e+03
 1.2299860e+01   4.0792832e+03
 1.2304540e+01   4.0770745e+03
 1.2309220e+01   4.0755051e+03
 1.2313900e+01   4.0809922e+03
 1.2318580e+01   4.0814357e+03
 1.2323260e+01   4.0860380e+03
 1.2327940e+01   4.0872538e+03
 1.2332620e+01   4.1035584e+03
 1.2337300e+01   4.1066738e+03
 1.2341980e+01   4.1207018e+03
 1.2346660e+01   4.1431905e+03
 1.2351340e+01   4.1626509e+03
 1.2356020e+01   4.1867291e+03
 1.2360700e+01   4.2011861e+03
 1.2365380e+01   4.2469014e+03
 1.2370060e+01   4.2720283e+03
 1.2374740e+01   4.3080835e+03
 1.2379420e+01   4.3251602e+03
 1.2384100e+01   4.3501914e+03
 1.2388780e+01   4.3639764e+03
 1.2393460e+01   4.3780180e+03
 1.2398140e+01   4.3943059e+03
 1.2402820e+01   4.4014295e+03
 1.2407500e+01   4.4125382e+03
 1.2412180e+01   4.4062332e+03
 1.2416860e+01   4.4321937e+03
 1.2421540e+01   4.4542505e+03
 1.2426220e+01   4.4715666e+03
 1.2430900e+01   4.5192257e+03
 1.2435580e+01   4.5472111e+03
 1.2440260e+01   4.5933643e+03
 1.2444940e+01   4.6227938e+03
 1.2449620e+01   4.6656525e+03
 1.2454300e+01   4.6890015e+03
 1.2458980e+01   4.7140883e+03
 1.2463660e+01   4.7241843e+03
 1.2468340e+01   4.7355123e+03
 1.2473020e+01   4.7188193e+03
 1.2477700e+01   4.7065382e+03
 1.2482380e+01   4.6709436e+03
 1.2487060e+01   4.6356602e+03
 1.2491740e+01   4.5905083e+03
 1.2496420e+01   4.5386357e+03
 1.2501100e+01   4.4878254e+03
 1.2505780e+01   4.4295227e+03
 1.2510460e+01   4.3695520e+03
 1.2515140e+01   4.3224696e+03
 1.2519820e+01   4.2682917e+03
 1.2524500e+01   4.2273280e+03
 1.2529180e+01   4.1868305e+03
 1.2533860e+01   4.1554766e+03
 1.2538540e+01   4.1371557e+03
 1.2543220e+01   4.1086241e+03
 1.2547900e+01   4.1096276e+03
 1.2552580e+01   4.0728046e+03
 1.2557260e+01   4.0629191e+03
 1.2561940e+01   4.0691048e+03
 1.2566620e+01   4.0424889e+03
 1.2571300e+01   4.0519940e+03
 1.2575980e+01   4.0322602e+03
 1.2580660e+01   4.0066768e+03
 1.2585340e+01   4.0109026e+03
 1.2590020e+01   3.9918758e+03
 1.2594700e+01   3.9973322e+03
 1.2599380e+01   3.9949360e+03
 1.2604060e+01   3.9854713e+03
 1.2608740e+01   3.9888200e+03
 1.2613420e+01   3.9897065e+03
 1.2618100e+01   3.9916132e+03
 1.2622780e+01   3.9792798e+03
 1.2627460e+01   3.9900232e+03
 1.2632140e+01   4.0026652e+03
 1.2636820e+01   4.0021147e+03
 1.2641500e+01   4.0079291e+03
 1.2646180e+01   4.0272454e+03
 1.2650860e+01   4.0406073e+03
 1.2655540e+01   4.0620882e+03
 1.2660220e+01   4.0894720e+03
 1.2664900e+01   4.1078036e+03
 1.2669580e+01   4.1518859e+03
 1.2674260e+01   4.2008476e+03
 1.2678940e+01   4.2647863e+03
 1.2683620e+01   4.3310650e+03
 1.2688300e+01   4.4029926e+03
 1.2692980e+01   4.4954917e+03
 1.2697660e+01   4.5966967e+03
