MA2-00001.tif Azm= 0.00
2-Theta Angle (Degrees)
Intensity
       2500
 1.0023400e+00   7.8667572e+03
 1.0070200e+00   7.8610970e+03
 1.0117000e+00   7.8256809e+03
 1.0163800e+00   7.8204790e+03
 1.0210600e+00   7.7407501e+03
 1.0257400e+00   7.7516466e+03
 1.0304199e+00   7.7057237e+03
 1.0351000e+00   7.7002039e+03
 1.0397800e+00   7.6952736e+03
 1.0444601e+00   7.6275792e+03
 1.0491400e+00   7.6052038e+03
 1.0538200e+00   7.6140458e+03
 1.0585001e+00   7.5492829e+03
 1.0631800e+00   7.5501399e+03
 1.0678600e+00   7.4937931e+03
 1.0725400e+00   7.4886494e+03
 1.0772200e+00   7.4691644e+03
 1.0819000e+00   7.4488455e+03
 1.0865800e+00   7.4546545e+03
 1.0912600e+00   7.4423796e+03
 1.0959400e+00   7.4263584e+03
 1.1006200e+00   7.4156667e+03
 1.1052999e+00   7.4079886e+03
 1.1099800e+00   7.3379892e+03
 1.1146600e+00   7.3476899e+03
 1.1193399e+00   7.3649086e+03
 1.1240200e+00   7.3119151e+03
 1.1287000e+00   7.2836679e+03
 1.1333801e+00   7.2731473e+03
 1.1380600e+00   7.2392768e+03
 1.1427400e+00   7.2746774e+03
 1.1474200e+00   7.2187232e+03
 1.1521000e+00   7.2172792e+03
 1.1567800e+00   7.2153606e+03
 1.1614600e+00   7.2172917e+03
 1.1661400e+00   7.1742001e+03
 1.1708200e+00   7.2039507e+03
 1.1755000e+00   7.1868394e+03
 1.1801800e+00   7.1797669e+03
 1.1848600e+00   7.1544305e+03
 1.1895400e+00   7.1696100e+03
 1.1942199e+00   7.1527459e+03
 1.1989000e+00   7.1404051e+03
 1.2035800e+00   7.1496028e+03
 1.2082601e+00   7.1174487e+03
 1.2129400e+00   7.1214863e+03
 1.2176200e+00   7.0943931e+03
 1.2223001e+00   7.0979486e+03
 1.2269800e+00   7.1286112e+03
 1.2316600e+00   7.0964332e+03
 1.2363400e+00   7.1063707e+03
 1.2410200e+00   7.0945493e+03
 1.2457000e+00   7.0818863e+03
 1.2503800e+00   7.0538179e+03
 1.2550600e+00   7.0783330e+03
 1.2597400e+00   7.1254321e+03
 1.2644200e+00   7.0532692e+03
 1.2691000e+00   7.0863360e+03
 1.2737800e+00   7.0697995e+03
 1.2784600e+00   7.0875743e+03
 1.2831399e+00   7.0786665e+03
 1.2878200e+00   7.0626780e+03
 1.2925000e+00   7.0805005e+03
 1.2971801e+00   7.1055302e+03
 1.3018600e+00   7.0407581e+03
 1.3065400e+00   7.1172648e+03
 1.3112200e+00   7.0566468e+03
 1.3159000e+00   7.0746136e+03
 1.3205800e+00   7.1076390e+03
 1.3252600e+00   7.0861780e+03
 1.3299400e+00   7.1008117e+03
 1.3346200e+00   7.1011710e+03
 1.3393000e+00   7.1318308e+03
 1.3439800e+00   7.0986511e+03
 1.3486600e+00   7.1231856e+03
 1.3533400e+00   7.1064907e+03
 1.3580199e+00   7.1476327e+03
 1.3627000e+00   7.1519104e+03
 1.3673800e+00   7.1348227e+03
 1.3720599e+00   7.1383832e+03
 1.3767400e+00   7.1681864e+03
 1.3814200e+00   7.1799649e+03
 1.3861001e+00   7.1780385e+03
 1.3907800e+00   7.1868781e+03
 1.3954600e+00   7.2154270e+03
 1.4001400e+00   7.2134689e+03
 1.4048200e+00   7.2295574e+03
 1.4095000e+00   7.2666369e+03
 1.4141800e+00   7.2816074e+03
 1.4188600e+00   7.2621984e+03
 1.4235400e+00   7.2993826e+03
 1.4282200e+00   7.3546326e+03
 1.4329000e+00   7.3193950e+03
 1.4375800e+00   7.3516189e+03
 1.4422600e+00   7.4008167e+03
 1.4469399e+00   7.3944655e+03
 1.4516200e+00   7.4395611e+03
 1.4563000e+00   7.4564537e+03
 1.4609801e+00   7.4669243e+03
 1.4656600e+00   7.4920140e+03
 1.4703400e+00   7.5576723e+03
 1.4750201e+00   7.5590130e+03
 1.4797000e+00   7.6044447e+03
 1.4843800e+00   7.5980153e+03
 1.4890600e+00   7.6188359e+03
 1.4937400e+00   7.6471962e+03
 1.4984200e+00   7.6473037e+03
 1.5031000e+00   7.6618176e+03
 1.5077800e+00   7.6866096e+03
 1.5124600e+00   7.6952941e+03
 1.5171400e+00   7.6789469e+03
 1.5218199e+00   7.7108965e+03
 1.5265000e+00   7.6824950e+03
 1.5311800e+00   7.7051633e+03
 1.5358599e+00   7.6930593e+03
 1.5405400e+00   7.7066161e+03
 1.5452200e+00   7.6832335e+03
 1.5499001e+00   7.6959101e+03
 1.5545800e+00   7.6732211e+03
 1.5592600e+00   7.6721907e+03
 1.5639400e+00   7.6504604e+03
 1.5686200e+00   7.6361838e+03
 1.5733000e+00   7.6352431e+03
 1.5779800e+00   7.6537789e+03
 1.5826600e+00   7.6295823e+03
 1.5873400e+00   7.6491574e+03
 1.5920200e+00   7.6342124e+03
 1.5967000e+00   7.6587996e+03
 1.6013800e+00   7.6309839e+03
 1.6060600e+00   7.6326479e+03
 1.6107399e+00   7.5960209e+03
 1.6154200e+00   7.6216754e+03
 1.6201000e+00   7.6220291e+03
 1.6247801e+00   7.6090332e+03
 1.6294600e+00   7.6070620e+03
 1.6341400e+00   7.6357435e+03
 1.6388201e+00   7.5967784e+03
 1.6435000e+00   7.6103920e+03
 1.6481800e+00   7.6217778e+03
 1.6528600e+00   7.6176252e+03
 1.6575400e+00   7.6183426e+03
 1.6622200e+00   7.6224586e+03
 1.6669000e+00   7.6133493e+03
 1.6715800e+00   7.6141882e+03
 1.6762600e+00   7.6145136e+03
 1.6809400e+00   7.6330884e+03
 1.6856200e+00   7.6313392e+03
 1.6903000e+00   7.6350890e+03
 1.6949800e+00   7.6480185e+03
 1.6996599e+00   7.6469171e+03
 1.7043400e+00   7.6395802e+03
 1.7090200e+00   7.6707316e+03
 1.7137001e+00   7.6498687e+03
 1.7183800e+00   7.6523819e+03
 1.7230600e+00   7.6776944e+03
 1.7277400e+00   7.6551778e+03
 1.7324200e+00   7.6895898e+03
 1.7371000e+00   7.6675785e+03
 1.7417800e+00   7.6897346e+03
 1.7464600e+00   7.6938282e+03
 1.7511400e+00   7.7067096e+03
 1.7558200e+00   7.6861151e+03
 1.7605000e+00   7.7055795e+03
 1.7651800e+00   7.7022829e+03
 1.7698600e+00   7.7163537e+03
 1.7745399e+00   7.7309362e+03
 1.7792200e+00   7.7421475e+03
 1.7839000e+00   7.7570126e+03
 1.7885799e+00   7.7504658e+03
 1.7932600e+00   7.7649622e+03
 1.7979400e+00   7.7794958e+03
 1.8026201e+00   7.8160676e+03
 1.8073000e+00   7.8275581e+03
 1.8119800e+00   7.8401000e+03
 1.8166600e+00   7.8511798e+03
 1.8213400e+00   7.8620604e+03
 1.8260200e+00   7.8987428e+03
 1.8307000e+00   7.9093038e+03
 1.8353800e+00   7.9290812e+03
 1.8400600e+00   7.9140460e+03
 1.8447400e+00   7.9512352e+03
 1.8494200e+00   7.9596451e+03
 1.8541000e+00   7.9647755e+03
 1.8587800e+00   8.0072910e+03
 1.8634599e+00   8.0392232e+03
 1.8681400e+00   8.0267659e+03
 1.8728200e+00   8.0730328e+03
 1.8775001e+00   8.0867755e+03
 1.8821800e+00   8.1179788e+03
 1.8868600e+00   8.1585379e+03
 1.8915401e+00   8.1644533e+03
 1.8962200e+00   8.1843316e+03
 1.9009000e+00   8.1998732e+03
 1.9055800e+00   8.2359392e+03
 1.9102600e+00   8.2647462e+03
 1.9149400e+00   8.2696209e+03
 1.9196200e+00   8.2840895e+03
 1.9243000e+00   8.3262454e+03
 1.9289800e+00   8.3603101e+03
 1.9336600e+00   8.3764380e+03
 1.9383399e+00   8.3918659e+03
 1.9430200e+00   8.4064654e+03
 1.9477000e+00   8.4190866e+03
 1.9523799e+00   8.4395759e+03
 1.9570600e+00   8.4869719e+03
 1.9617400e+00   8.5102206e+03
 1.9664201e+00   8.5333749e+03
 1.9711000e+00   8.5534270e+03
 1.9757800e+00   8.5623300e+03
 1.9804600e+00   8.5796351e+03
 1.9851400e+00   8.5883272e+03
 1.9898200e+00   8.6263191e+03
 1.9945000e+00   8.6511090e+03
 1.9991800e+00   8.6680127e+03
 2.0038600e+00   8.6932174e+03
 2.0085399e+00   8.7186346e+03
 2.0132201e+00   8.7558023e+03
 2.0179000e+00   8.7522868e+03
 2.0225799e+00   8.7731397e+03
 2.0272601e+00   8.8105556e+03
 2.0319400e+00   8.8108081e+03
 2.0366199e+00   8.8533761e+03
 2.0413001e+00   8.8850182e+03
 2.0459800e+00   8.8607518e+03
 2.0506599e+00   8.8950153e+03
 2.0553401e+00   8.9467040e+03
 2.0600200e+00   8.9501750e+03
 2.0646999e+00   8.9805102e+03
 2.0693800e+00   9.0024140e+03
 2.0740600e+00   9.0258248e+03
 2.0787399e+00   9.0441821e+03
 2.0834200e+00   9.0668974e+03
 2.0881000e+00   9.0798789e+03
 2.0927801e+00   9.1395129e+03
 2.0974600e+00   9.1548638e+03
 2.1021399e+00   9.2398968e+03
 2.1068201e+00   9.2621468e+03
 2.1115000e+00   9.2954568e+03
 2.1161799e+00   9.3219864e+03
 2.1208601e+00   9.3184633e+03
 2.1255400e+00   9.3523136e+03
 2.1302199e+00   9.3917169e+03
 2.1349001e+00   9.3880917e+03
 2.1395800e+00   9.4481303e+03
 2.1442599e+00   9.4683318e+03
 2.1489401e+00   9.5217428e+03
 2.1536200e+00   9.5535832e+03
 2.1582999e+00   9.6098883e+03
 2.1629801e+00   9.6493743e+03
 2.1676600e+00   9.7104881e+03
 2.1723399e+00   9.7919957e+03
 2.1770201e+00   9.8615719e+03
 2.1817000e+00   9.9675413e+03
 2.1863799e+00   1.0069917e+04
 2.1910601e+00   1.0172725e+04
 2.1957400e+00   1.0341054e+04
 2.2004199e+00   1.0558741e+04
 2.2051001e+00   1.0876710e+04
 2.2097800e+00   1.1295847e+04
 2.2144599e+00   1.1876861e+04
 2.2191401e+00   1.2807978e+04
 2.2238200e+00   1.4047263e+04
 2.2284999e+00   1.5866788e+04
 2.2331800e+00   1.8159413e+04
 2.2378600e+00   2.1053233e+04
 2.2425399e+00   2.3760299e+04
 2.2472200e+00   2.6224413e+04
 2.2519000e+00   2.7472427e+04
 2.2565801e+00   2.7483879e+04
 2.2612600e+00   2.6176321e+04
 2.2659400e+00   2.3745181e+04
 2.2706201e+00   2.0917179e+04
 2.2753000e+00   1.8185617e+04
 2.2799799e+00   1.5990101e+04
 2.2846601e+00   1.4198294e+04
 2.2893400e+00   1.3044676e+04
 2.2940199e+00   1.2246409e+04
 2.2987001e+00   1.1695941e+04
 2.3033800e+00   1.1352310e+04
 2.3080599e+00   1.1110499e+04
 2.3127401e+00   1.0939612e+04
 2.3174200e+00   1.0888496e+04
 2.3220999e+00   1.0810797e+04
 2.3267801e+00   1.0752655e+04
 2.3314600e+00   1.0757368e+04
 2.3361399e+00   1.0739272e+04
 2.3408201e+00   1.0728194e+04
 2.3455000e+00   1.0770388e+04
 2.3501799e+00   1.0753757e+04
 2.3548601e+00   1.0797461e+04
 2.3595400e+00   1.0819495e+04
 2.3642199e+00   1.0816928e+04
 2.3689001e+00   1.0838944e+04
 2.3735800e+00   1.0879429e+04
 2.3782599e+00   1.0923641e+04
 2.3829401e+00   1.0923856e+04
 2.3876200e+00   1.0987922e+04
 2.3922999e+00   1.0997292e+04
 2.3969800e+00   1.1017393e+04
 2.4016600e+00   1.1093882e+04
 2.4063399e+00   1.1108071e+04
 2.4110200e+00   1.1110011e+04
 2.4157000e+00   1.1154393e+04
 2.4203801e+00   1.1181832e+04
 2.4250600e+00   1.1224059e+04
 2.4297400e+00   1.1251253e+04
 2.4344201e+00   1.1303822e+04
 2.4391000e+00   1.1344609e+04
 2.4437799e+00   1.1377168e+04
 2.4484601e+00   1.1406114e+04
 2.4531400e+00   1.1439346e+04
 2.4578199e+00   1.1463107e+04
 2.4625001e+00   1.1506942e+04
 2.4671800e+00   1.1541805e+04
 2.4718599e+00   1.1583958e+04
 2.4765401e+00   1.1622464e+04
 2.4812200e+00   1.1684926e+04
 2.4858999e+00   1.1723070e+04
 2.4905801e+00   1.1749339e+04
 2.4952600e+00   1.1793710e+04
 2.4999399e+00   1.1840386e+04
 2.5046201e+00   1.1855582e+04
 2.5093000e+00   1.1902438e+04
 2.5139799e+00   1.1926118e+04
 2.5186601e+00   1.1959020e+04
 2.5233400e+00   1.2013287e+04
 2.5280199e+00   1.2046514e+04
 2.5327001e+00   1.2077244e+04
 2.5373800e+00   1.2094386e+04
 2.5420599e+00   1.2193887e+04
 2.5467401e+00   1.2178792e+04
 2.5514200e+00   1.2202059e+04
 2.5560999e+00   1.2248863e+04
 2.5607800e+00   1.2291944e+04
 2.5654600e+00   1.2335649e+04
 2.5701399e+00   1.2338694e+04
 2.5748200e+00   1.2412443e+04
 2.5795000e+00   1.2406607e+04
 2.5841801e+00   1.2473240e+04
 2.5888600e+00   1.2502067e+04
 2.5935400e+00   1.2495962e+04
 2.5982201e+00   1.2531700e+04
 2.6029000e+00   1.2548724e+04
 2.6075799e+00   1.2574408e+04
 2.6122601e+00   1.2607404e+04
 2.6169400e+00   1.2628867e+04
 2.6216199e+00   1.2636096e+04
 2.6263001e+00   1.2659422e+04
 2.6309800e+00   1.2695308e+04
 2.6356599e+00   1.2712971e+04
 2.6403401e+00   1.2744581e+04
 2.6450200e+00   1.2750252e+04
 2.6496999e+00   1.2768959e+04
 2.6543801e+00   1.2799205e+04
 2.6590600e+00   1.2803920e+04
 2.6637399e+00   1.2817314e+04
 2.6684201e+00   1.2816980e+04
 2.6731000e+00   1.2832243e+04
 2.6777799e+00   1.2861176e+04
 2.6824601e+00   1.2866125e+04
 2.6871400e+00   1.2881261e+04
 2.6918199e+00   1.2887673e+04
 2.6965001e+00   1.2904682e+04
 2.7011800e+00   1.2902891e+04
 2.7058599e+00   1.2925009e+04
 2.7105401e+00   1.2960203e+04
 2.7152200e+00   1.2934176e+04
 2.7198999e+00   1.2938993e+04
 2.7245800e+00   1.2947862e+04
 2.7292600e+00   1.2945553e+04
 2.7339399e+00   1.2956435e+04
 2.7386200e+00   1.2938515e+04
 2.7433000e+00   1.2922596e+04
 2.7479801e+00   1.2932344e+04
 2.7526600e+00   1.2944005e+04
 2.7573400e+00   1.2927210e+04
 2.7620201e+00   1.2899669e+04
 2.7667000e+00   1.2909458e+04
 2.7713799e+00   1.2905157e+04
 2.7760601e+00   1.2906598e+04
 2.7807400e+00   1.2892321e+04
 2.7854199e+00   1.2862443e+04
 2.7901001e+00   1.2868640e+04
 2.7947800e+00   1.2826207e+04
 2.7994599e+00   1.2843218e+04
 2.8041401e+00   1.2799489e+04
 2.8088200e+00   1.2822116e+04
 2.8134999e+00   1.2791402e+04
 2.8181801e+00   1.2796962e+04
 2.8228600e+00   1.2777442e+04
 2.8275399e+00   1.2761437e+04
 2.8322201e+00   1.2739200e+04
 2.8369000e+00   1.2732372e+04
 2.8415799e+00   1.2720833e+04
 2.8462601e+00   1.2681550e+04
 2.8509400e+00   1.2679884e+04
 2.8556199e+00   1.2681779e+04
 2.8603001e+00   1.2647444e+04
 2.8649800e+00   1.2644514e+04
 2.8696599e+00   1.2620469e+04
 2.8743401e+00   1.2598319e+04
 2.8790200e+00   1.2591835e+04
 2.8836999e+00   1.2546393e+04
 2.8883801e+00   1.2552290e+04
 2.8930600e+00   1.2512361e+04
 2.8977399e+00   1.2502049e+04
 2.9024200e+00   1.2505895e+04
 2.9071000e+00   1.2462939e+04
 2.9117801e+00   1.2436255e+04
 2.9164600e+00   1.2435096e+04
 2.9211400e+00   1.2395597e+04
 2.9258201e+00   1.2383459e+04
 2.9305000e+00   1.2348943e+04
 2.9351799e+00   1.2345725e+04
 2.9398601e+00   1.2323203e+04
 2.9445400e+00   1.2328693e+04
 2.9492199e+00   1.2274058e+04
 2.9539001e+00   1.2275337e+04
 2.9585800e+00   1.2247748e+04
 2.9632599e+00   1.2239375e+04
 2.9679401e+00   1.2192305e+04
 2.9726200e+00   1.2172891e+04
 2.9772999e+00   1.2148536e+04
 2.9819801e+00   1.2125841e+04
 2.9866600e+00   1.2084049e+04
 2.9913399e+00   1.2053486e+04
 2.9960201e+00   1.2044927e+04
 3.0007000e+00   1.2011018e+04
 3.0053799e+00   1.1983339e+04
 3.0100601e+00   1.1956768e+04
 3.0147400e+00   1.1935530e+04
 3.0194199e+00   1.1913857e+04
 3.0241001e+00   1.1881578e+04
 3.0287800e+00   1.1887136e+04
 3.0334599e+00   1.1858829e+04
 3.0381401e+00   1.1822770e+04
 3.0428200e+00   1.1780554e+04
 3.0474999e+00   1.1739505e+04
 3.0521801e+00   1.1711764e+04
 3.0568600e+00   1.1682170e+04
 3.0615399e+00   1.1669640e+04
 3.0662200e+00   1.1600198e+04
 3.0709000e+00   1.1592362e+04
 3.0755799e+00   1.1572910e+04
 3.0802600e+00   1.1554472e+04
 3.0849400e+00   1.1508710e+04
 3.0896201e+00   1.1504129e+04
 3.0943000e+00   1.1468937e+04
 3.0989799e+00   1.1430369e+04
 3.1036601e+00   1.1402750e+04
 3.1083400e+00   1.1414609e+04
 3.1130199e+00   1.1369422e+04
 3.1177001e+00   1.1359623e+04
 3.1223800e+00   1.1329846e+04
 3.1270599e+00   1.1315990e+04
 3.1317401e+00   1.1279456e+04
 3.1364200e+00   1.1271650e+04
 3.1410999e+00   1.1265570e+04
 3.1457801e+00   1.1232314e+04
 3.1504600e+00   1.1226528e+04
 3.1551399e+00   1.1189714e+04
 3.1598201e+00   1.1182401e+04
 3.1645000e+00   1.1150827e+04
 3.1691799e+00   1.1132753e+04
 3.1738601e+00   1.1107990e+04
 3.1785400e+00   1.1091674e+04
 3.1832199e+00   1.1077174e+04
 3.1879001e+00   1.1080783e+04
 3.1925800e+00   1.1067217e+04
 3.1972599e+00   1.1061490e+04
 3.2019401e+00   1.1044248e+04
 3.2066200e+00   1.1003874e+04
 3.2112999e+00   1.1018695e+04
 3.2159801e+00   1.0967593e+04
 3.2206600e+00   1.0956315e+04
 3.2253399e+00   1.0941029e+04
 3.2300200e+00   1.0911730e+04
 3.2347000e+00   1.0925390e+04
 3.2393799e+00   1.0899884e+04
 3.2440600e+00   1.0893391e+04
 3.2487400e+00   1.0874056e+04
 3.2534201e+00   1.0848050e+04
 3.2581000e+00   1.0838867e+04
 3.2627800e+00   1.0848204e+04
 3.2674601e+00   1.0808804e+04
 3.2721400e+00   1.0810895e+04
 3.2768199e+00   1.0812868e+04
 3.2815001e+00   1.0772352e+04
 3.2861800e+00   1.0799406e+04
 3.2908599e+00   1.0758544e+04
 3.2955401e+00   1.0773903e+04
 3.3002200e+00   1.0761447e+04
 3.3048999e+00   1.0749464e+04
 3.3095801e+00   1.0744042e+04
 3.3142600e+00   1.0774334e+04
 3.3189399e+00   1.0728919e+04
 3.3236201e+00   1.0749727e+04
 3.3283000e+00   1.0730984e+04
 3.3329799e+00   1.0727769e+04
 3.3376601e+00   1.0717341e+04
 3.3423400e+00   1.0712275e+04
 3.3470199e+00   1.0683594e+04
 3.3517001e+00   1.0714905e+04
 3.3563800e+00   1.0660036e+04
 3.3610599e+00   1.0692176e+04
 3.3657401e+00   1.0687577e+04
 3.3704200e+00   1.0695095e+04
 3.3750999e+00   1.0686798e+04
 3.3797801e+00   1.0696371e+04
 3.3844600e+00   1.0672778e+04
 3.3891399e+00   1.0672664e+04
 3.3938200e+00   1.0681419e+04
 3.3985000e+00   1.0690147e+04
 3.4031799e+00   1.0684248e+04
 3.4078600e+00   1.0670473e+04
 3.4125400e+00   1.0689282e+04
 3.4172201e+00   1.0668853e+04
 3.4219000e+00   1.0674368e+04
 3.4265800e+00   1.0696413e+04
 3.4312601e+00   1.0693966e+04
 3.4359400e+00   1.0705709e+04
 3.4406199e+00   1.0701884e+04
 3.4453001e+00   1.0698963e+04
 3.4499800e+00   1.0714207e+04
 3.4546599e+00   1.0708264e+04
 3.4593401e+00   1.0687318e+04
 3.4640200e+00   1.0714121e+04
 3.4686999e+00   1.0703246e+04
 3.4733801e+00   1.0695533e+04
 3.4780600e+00   1.0709972e+04
 3.4827399e+00   1.0682937e+04
 3.4874201e+00   1.0704920e+04
 3.4921000e+00   1.0703641e+04
 3.4967799e+00   1.0677575e+04
 3.5014601e+00   1.0684791e+04
 3.5061400e+00   1.0694730e+04
 3.5108199e+00   1.0654604e+04
 3.5155001e+00   1.0705956e+04
 3.5201800e+00   1.0690047e+04
 3.5248599e+00   1.0686765e+04
 3.5295401e+00   1.0700293e+04
 3.5342200e+00   1.0682498e+04
 3.5388999e+00   1.0677126e+04
 3.5435801e+00   1.0709414e+04
 3.5482600e+00   1.0664191e+04
 3.5529399e+00   1.0715085e+04
 3.5576200e+00   1.0677451e+04
 3.5623000e+00   1.0673151e+04
 3.5669799e+00   1.0701729e+04
 3.5716600e+00   1.0679082e+04
 3.5763400e+00   1.0680603e+04
 3.5810201e+00   1.0702713e+04
 3.5857000e+00   1.0646525e+04
 3.5903800e+00   1.0652802e+04
 3.5950601e+00   1.0679120e+04
 3.5997400e+00   1.0654066e+04
 3.6044199e+00   1.0673499e+04
 3.6091001e+00   1.0677709e+04
 3.6137800e+00   1.0612303e+04
 3.6184599e+00   1.0705185e+04
 3.6231401e+00   1.0616236e+04
 3.6278200e+00   1.0611930e+04
 3.6324999e+00   1.0658309e+04
 3.6371801e+00   1.0579496e+04
 3.6418600e+00   1.0660492e+04
 3.6465399e+00   1.0624662e+04
 3.6512201e+00   1.0547966e+04
 3.6559000e+00   1.0634706e+04
 3.6605799e+00   1.0591175e+04
 3.6652601e+00   1.0547577e+04
 3.6699400e+00   1.0593763e+04
 3.6746199e+00   1.0475296e+04
 3.6793001e+00   1.0519467e+04
 3.6839800e+00   1.0527283e+04
 3.6886599e+00   1.0428590e+04
 3.6933401e+00   1.0479001e+04
 3.6980200e+00   1.0412504e+04
 3.7026999e+00   1.0380323e+04
 3.7073801e+00   1.0449163e+04
 3.7120600e+00   1.0323551e+04
 3.7167399e+00   1.0326979e+04
 3.7214200e+00   1.0321354e+04
 3.7261000e+00   1.0187699e+04
 3.7307799e+00   1.0215608e+04
 3.7354600e+00   1.0148189e+04
 3.7401400e+00   1.0086282e+04
 3.7448201e+00   1.0102601e+04
 3.7495000e+00   1.0060801e+04
 3.7541800e+00   9.9566211e+03
 3.7588601e+00   1.0026558e+04
 3.7635400e+00   9.8545670e+03
 3.7682199e+00   9.8836574e+03
 3.7729001e+00   9.8492146e+03
 3.7775800e+00   9.7549577e+03
 3.7822599e+00   9.7405761e+03
 3.7869401e+00   9.7816835e+03
 3.7916200e+00   9.5965461e+03
 3.7962999e+00   9.7386546e+03
 3.8009801e+00   9.5737456e+03
 3.8056600e+00   9.5269571e+03
 3.8103399e+00   9.5984374e+03
 3.8150201e+00   9.4788865e+03
 3.8197000e+00   9.4741842e+03
 3.8243799e+00   9.5875835e+03
 3.8290601e+00   9.4426486e+03
 3.8337400e+00   9.4729396e+03
 3.8384199e+00   9.4863638e+03
 3.8431001e+00   9.3357887e+03
 3.8477800e+00   9.4812244e+03
 3.8524599e+00   9.3664157e+03
 3.8571401e+00   9.3650692e+03
 3.8618200e+00   9.3232852e+03
 3.8664999e+00   9.2492589e+03
 3.8711801e+00   9.2322826e+03
 3.8758600e+00   9.1929447e+03
 3.8805399e+00   9.0935146e+03
 3.8852201e+00   9.1423631e+03
 3.8899000e+00   9.0615942e+03
 3.8945799e+00   9.0078719e+03
 3.8992600e+00   9.0311442e+03
 3.9039400e+00   8.9982673e+03
 3.9086201e+00   8.9082156e+03
 3.9133000e+00   8.9534461e+03
 3.9179800e+00   8.8539001e+03
 3.9226601e+00   8.8732397e+03
 3.9273400e+00   8.8526004e+03
 3.9320199e+00   8.7791612e+03
 3.9367001e+00   8.7788548e+03
 3.9413800e+00   8.7625556e+03
 3.9460599e+00   8.6953856e+03
 3.9507401e+00   8.7228020e+03
 3.9554200e+00   8.7061579e+03
 3.9600999e+00   8.6469201e+03
 3.9647801e+00   8.5932053e+03
 3.9694600e+00   8.6016878e+03
 3.9741399e+00   8.5816108e+03
 3.9788201e+00   8.5666982e+03
 3.9835000e+00   8.5454705e+03
 3.9881799e+00   8.5192392e+03
 3.9928601e+00   8.4687593e+03
 3.9975400e+00   8.4351164e+03
 4.0022202e+00   8.4983807e+03
 4.0068998e+00   8.3982732e+03
 4.0115800e+00   8.4286785e+03
 4.0162601e+00   8.3843458e+03
 4.0209398e+00   8.3223108e+03
 4.0256200e+00   8.3074935e+03
 4.0303001e+00   8.3541616e+03
 4.0349798e+00   8.2811227e+03
 4.0396600e+00   8.3646037e+03
 4.0443401e+00   8.2297888e+03
 4.0490198e+00   8.2326048e+03
 4.0537000e+00   8.2626624e+03
 4.0583801e+00   8.1983588e+03
 4.0630598e+00   8.2070612e+03
 4.0677400e+00   8.2552197e+03
 4.0724201e+00   8.1414691e+03
 4.0770998e+00   8.1915223e+03
 4.0817800e+00   8.1398377e+03
 4.0864601e+00   8.0934071e+03
 4.0911398e+00   8.1932745e+03
 4.0958200e+00   8.0559387e+03
 4.1005001e+00   8.1001916e+03
 4.1051798e+00   8.0581486e+03
 4.1098599e+00   8.0236246e+03
 4.1145401e+00   8.0550854e+03
 4.1192198e+00   8.0043569e+03
 4.1238999e+00   7.9201028e+03
 4.1285801e+00   8.0537978e+03
 4.1332598e+00   7.9290966e+03
 4.1379399e+00   7.9915926e+03
 4.1426201e+00   7.9341079e+03
 4.1472998e+00   7.8593462e+03
 4.1519799e+00   7.9024313e+03
 4.1566601e+00   7.8735968e+03
 4.1613402e+00   7.7923879e+03
 4.1660199e+00   7.8961969e+03
 4.1707001e+00   7.7848313e+03
 4.1753802e+00   7.7737953e+03
 4.1800599e+00   7.7979029e+03
 4.1847401e+00   7.7369060e+03
 4.1894202e+00   7.8030911e+03
 4.1940999e+00   7.7677654e+03
 4.1987801e+00   7.7021309e+03
 4.2034602e+00   7.8139050e+03
 4.2081399e+00   7.7540558e+03
 4.2128201e+00   7.7178099e+03
 4.2175002e+00   7.8585672e+03
 4.2221799e+00   7.7096994e+03
 4.2268600e+00   7.7170045e+03
 4.2315402e+00   7.7369238e+03
 4.2362199e+00   7.6192848e+03
 4.2409000e+00   7.7054365e+03
 4.2455802e+00   7.7128377e+03
 4.2502599e+00   7.6314187e+03
 4.2549400e+00   7.7401224e+03
 4.2596202e+00   7.6890809e+03
 4.2642999e+00   7.6935444e+03
 4.2689800e+00   7.7195855e+03
 4.2736602e+00   7.6652142e+03
 4.2783399e+00   7.6542894e+03
 4.2830200e+00   7.6925961e+03
 4.2877002e+00   7.6026504e+03
 4.2923799e+00   7.6912635e+03
 4.2970600e+00   7.6549096e+03
 4.3017402e+00   7.6162732e+03
 4.3064198e+00   7.6481755e+03
 4.3111000e+00   7.6309752e+03
 4.3157802e+00   7.6341412e+03
 4.3204598e+00   7.6419015e+03
 4.3251400e+00   7.6014368e+03
 4.3298202e+00   7.6416150e+03
 4.3344998e+00   7.5792612e+03
 4.3391800e+00   7.5792374e+03
 4.3438601e+00   7.6394138e+03
 4.3485398e+00   7.6067016e+03
 4.3532200e+00   7.5937173e+03
 4.3579001e+00   7.6401305e+03
 4.3625798e+00   7.5227598e+03
 4.3672600e+00   7.6138691e+03
 4.3719401e+00   7.5527484e+03
 4.3766198e+00   7.5682287e+03
 4.3813000e+00   7.5805066e+03
 4.3859801e+00   7.5589411e+03
 4.3906598e+00   7.5278649e+03
 4.3953400e+00   7.5818525e+03
 4.4000201e+00   7.5199949e+03
 4.4046998e+00   7.5942866e+03
 4.4093800e+00   7.5267455e+03
 4.4140601e+00   7.5283815e+03
 4.4187398e+00   7.5287357e+03
 4.4234200e+00   7.5198263e+03
 4.4281001e+00   7.4633535e+03
 4.4327798e+00   7.5550638e+03
 4.4374599e+00   7.4876885e+03
 4.4421401e+00   7.5229998e+03
 4.4468198e+00   7.5397579e+03
 4.4514999e+00   7.5221121e+03
 4.4561801e+00   7.5905988e+03
 4.4608598e+00   7.6413850e+03
 4.4655399e+00   7.6989207e+03
 4.4702201e+00   7.8671053e+03
 4.4748998e+00   8.0460158e+03
 4.4795799e+00   8.3057975e+03
 4.4842601e+00   8.7012109e+03
 4.4889398e+00   9.1197714e+03
 4.4936199e+00   9.6458230e+03
 4.4983001e+00   1.0144761e+04
 4.5029802e+00   1.0510227e+04
 4.5076599e+00   1.0727407e+04
 4.5123401e+00   1.0688048e+04
 4.5170202e+00   1.0362719e+04
 4.5216999e+00   9.9535076e+03
 4.5263801e+00   9.4047900e+03
 4.5310602e+00   8.8454859e+03
 4.5357399e+00   8.3933325e+03
 4.5404201e+00   7.9741684e+03
 4.5451002e+00   7.6781622e+03
 4.5497799e+00   7.4597884e+03
 4.5544600e+00   7.2905790e+03
 4.5591402e+00   7.1753547e+03
 4.5638199e+00   7.0843603e+03
 4.5685000e+00   6.9919840e+03
 4.5731802e+00   6.9846264e+03
 4.5778599e+00   6.9363620e+03
 4.5825400e+00   6.8989913e+03
 4.5872202e+00   6.8912567e+03
 4.5918999e+00   6.8272838e+03
 4.5965800e+00   6.8081247e+03
 4.6012602e+00   6.7704413e+03
 4.6059399e+00   6.7749542e+03
 4.6106200e+00   6.7748896e+03
 4.6153002e+00   6.7515435e+03
 4.6199799e+00   6.7110957e+03
 4.6246600e+00   6.7083899e+03
 4.6293402e+00   6.6848140e+03
 4.6340199e+00   6.6773184e+03
 4.6387000e+00   6.6909498e+03
 4.6433802e+00   6.6626415e+03
 4.6480598e+00   6.6751081e+03
 4.6527400e+00   6.6456725e+03
 4.6574202e+00   6.6337075e+03
 4.6620998e+00   6.7030790e+03
 4.6667800e+00   6.6909250e+03
 4.6714602e+00   6.7141899e+03
 4.6761398e+00   6.7730503e+03
 4.6808200e+00   6.8771977e+03
 4.6855001e+00   7.0114362e+03
 4.6901798e+00   7.2420431e+03
 4.6948600e+00   7.5383337e+03
 4.6995401e+00   7.9825063e+03
 4.7042198e+00   8.4952864e+03
 4.7089000e+00   9.0565710e+03
 4.7135801e+00   9.6430996e+03
 4.7182598e+00   1.0053386e+04
 4.7229400e+00   1.0281213e+04
 4.7276201e+00   1.0177210e+04
 4.7322998e+00   9.8658564e+03
 4.7369800e+00   9.3404994e+03
 4.7416601e+00   8.7540959e+03
 4.7463398e+00   8.1924578e+03
 4.7510200e+00   7.7277236e+03
 4.7557001e+00   7.3347374e+03
 4.7603798e+00   7.0482241e+03
 4.7650599e+00   6.8627135e+03
 4.7697401e+00   6.7162532e+03
 4.7744198e+00   6.6251551e+03
 4.7790999e+00   6.5382177e+03
 4.7837801e+00   6.4829595e+03
 4.7884598e+00   6.4505814e+03
 4.7931399e+00   6.4205527e+03
 4.7978201e+00   6.4054691e+03
 4.8024998e+00   6.3950178e+03
 4.8071799e+00   6.3785040e+03
 4.8118601e+00   6.3834954e+03
 4.8165398e+00   6.3542484e+03
 4.8212199e+00   6.3995443e+03
 4.8259001e+00   6.4009512e+03
 4.8305802e+00   6.4052001e+03
 4.8352599e+00   6.4448956e+03
 4.8399401e+00   6.5102705e+03
 4.8446202e+00   6.5950889e+03
 4.8492999e+00   6.7080284e+03
 4.8539801e+00   6.8860138e+03
 4.8586602e+00   7.1604821e+03
 4.8633399e+00   7.5211111e+03
 4.8680201e+00   8.0653268e+03
 4.8727002e+00   8.7668218e+03
 4.8773799e+00   9.6770689e+03
 4.8820601e+00   1.0736643e+04
 4.8867402e+00   1.1795518e+04
 4.8914199e+00   1.2719827e+04
 4.8961000e+00   1.3350639e+04
 4.9007802e+00   1.3438384e+04
 4.9054599e+00   1.3073011e+04
 4.9101400e+00   1.2322851e+04
 4.9148202e+00   1.1289346e+04
 4.9194999e+00   1.0219131e+04
 4.9241800e+00   9.1899080e+03
 4.9288602e+00   8.3905459e+03
 4.9335399e+00   7.7525287e+03
 4.9382200e+00   7.2784971e+03
 4.9429002e+00   6.9151406e+03
 4.9475799e+00   6.7165319e+03
 4.9522600e+00   6.5192235e+03
 4.9569402e+00   6.4235810e+03
 4.9616199e+00   6.3251586e+03
 4.9663000e+00   6.2994480e+03
 4.9709802e+00   6.2174908e+03
 4.9756598e+00   6.1888226e+03
 4.9803400e+00   6.1638016e+03
 4.9850202e+00   6.1540344e+03
 4.9896998e+00   6.1204822e+03
 4.9943800e+00   6.1180311e+03
 4.9990602e+00   6.1020885e+03
 5.0037398e+00   6.0911317e+03
 5.0084200e+00   6.0802078e+03
 5.0131001e+00   6.0580941e+03
 5.0177798e+00   6.0625910e+03
 5.0224600e+00   6.0590631e+03
 5.0271401e+00   6.0388476e+03
 5.0318198e+00   6.0400819e+03
 5.0365000e+00   6.0577929e+03
 5.0411801e+00   6.0331821e+03
 5.0458598e+00   6.0504868e+03
 5.0505400e+00   6.0567558e+03
 5.0552201e+00   6.0892992e+03
 5.0598998e+00   6.0941282e+03
 5.0645800e+00   6.1234836e+03
 5.0692601e+00   6.1592782e+03
 5.0739398e+00   6.2079818e+03
 5.0786200e+00   6.3244745e+03
 5.0833001e+00   6.4409822e+03
 5.0879798e+00   6.5483287e+03
 5.0926600e+00   6.7072668e+03
 5.0973401e+00   6.8102434e+03
 5.1020198e+00   7.2408134e+03
 5.1066999e+00   7.5686710e+03
 5.1113801e+00   7.6577836e+03
 5.1160598e+00   7.4739827e+03
 5.1207399e+00   7.7186425e+03
 5.1254201e+00   8.3105811e+03
 5.1300998e+00   9.6604796e+03
 5.1347799e+00   1.0879598e+04
 5.1394601e+00   1.2250893e+04
 5.1441398e+00   1.2762277e+04
 5.1488199e+00   1.2914366e+04
 5.1535001e+00   1.1877651e+04
 5.1581802e+00   1.0973933e+04
 5.1628599e+00   9.6706925e+03
 5.1675401e+00   8.5762723e+03
 5.1722202e+00   7.6233577e+03
 5.1768999e+00   6.9701730e+03
 5.1815801e+00   6.5661472e+03
 5.1862602e+00   6.4726909e+03
 5.1909399e+00   6.5703709e+03
 5.1956201e+00   6.4792919e+03
 5.2003002e+00   6.3734202e+03
 5.2049799e+00   6.1830456e+03
 5.2096601e+00   6.1643792e+03
 5.2143402e+00   6.1445051e+03
 5.2190199e+00   6.1152585e+03
 5.2237000e+00   6.0392760e+03
 5.2283802e+00   5.9850278e+03
 5.2330599e+00   5.9599860e+03
 5.2377400e+00   5.9344788e+03
 5.2424202e+00   5.8861255e+03
 5.2470999e+00   5.8658868e+03
 5.2517800e+00   5.8457853e+03
 5.2564602e+00   5.8289686e+03
 5.2611399e+00   5.8240759e+03
 5.2658200e+00   5.8016108e+03
 5.2705002e+00   5.8078794e+03
 5.2751799e+00   5.7653462e+03
 5.2798600e+00   5.7675880e+03
 5.2845402e+00   5.7644181e+03
 5.2892199e+00   5.7340641e+03
 5.2939000e+00   5.7616071e+03
 5.2985802e+00   5.7496594e+03
 5.3032598e+00   5.7338115e+03
 5.3079400e+00   5.7311502e+03
 5.3126202e+00   5.7186685e+03
 5.3172998e+00   5.7434178e+03
 5.3219800e+00   5.7135926e+03
 5.3266602e+00   5.7041923e+03
 5.3313398e+00   5.6969252e+03
 5.3360200e+00   5.7000949e+03
 5.3407001e+00   5.6880755e+03
 5.3453798e+00   5.6794733e+03
 5.3500600e+00   5.6786485e+03
 5.3547401e+00   5.6933386e+03
 5.3594198e+00   5.6776660e+03
 5.3641000e+00   5.6814627e+03
 5.3687801e+00   5.6872931e+03
 5.3734598e+00   5.6825201e+03
 5.3781400e+00   5.6883665e+03
 5.3828201e+00   5.6829542e+03
 5.3874998e+00   5.6926441e+03
 5.3921800e+00   5.7006069e+03
 5.3968601e+00   5.7013772e+03
 5.4015398e+00   5.6982257e+03
 5.4062200e+00   5.7427759e+03
 5.4109001e+00   5.7251881e+03
 5.4155798e+00   5.7365704e+03
 5.4202600e+00   5.7691468e+03
 5.4249401e+00   5.7689778e+03
 5.4296198e+00   5.7947239e+03
 5.4342999e+00   5.8147634e+03
 5.4389801e+00   5.8264636e+03
 5.4436598e+00   5.8745023e+03
 5.4483399e+00   5.8862466e+03
 5.4530201e+00   5.9594268e+03
 5.4576998e+00   6.0150087e+03
 5.4623799e+00   6.0700749e+03
 5.4670601e+00   6.1437796e+03
 5.4717398e+00   6.2559402e+03
 5.4764199e+00   6.3718348e+03
 5.4811001e+00   6.5866272e+03
 5.4857798e+00   6.7990892e+03
 5.4904599e+00   7.1035117e+03
 5.4951401e+00   7.5037233e+03
 5.4998202e+00   8.0345262e+03
 5.5044999e+00   8.8371209e+03
 5.5091801e+00   9.8960173e+03
 5.5138602e+00   1.1353566e+04
 5.5185399e+00   1.3296869e+04
 5.5232201e+00   1.5807967e+04
 5.5279002e+00   1.8779303e+04
 5.5325799e+00   2.2131996e+04
 5.5372601e+00   2.5332713e+04
 5.5419402e+00   2.8098326e+04
 5.5466199e+00   2.9689555e+04
 5.5513000e+00   2.9869858e+04
 5.5559802e+00   2.8727287e+04
 5.5606599e+00   2.6296434e+04
 5.5653400e+00   2.3207206e+04
 5.5700202e+00   1.9932071e+04
 5.5746999e+00   1.6865503e+04
 5.5793800e+00   1.4208774e+04
 5.5840602e+00   1.2093255e+04
 5.5887399e+00   1.0494610e+04
 5.5934200e+00   9.3087206e+03
 5.5981002e+00   8.4308056e+03
 5.6027799e+00   7.7810435e+03
 5.6074600e+00   7.3019240e+03
 5.6121402e+00   6.9662006e+03
 5.6168199e+00   6.6939000e+03
 5.6215000e+00   6.4863201e+03
 5.6261802e+00   6.3296752e+03
 5.6308599e+00   6.2036933e+03
 5.6355400e+00   6.1024470e+03
 5.6402202e+00   6.0353962e+03
 5.6448998e+00   5.9644346e+03
 5.6495800e+00   5.9181539e+03
 5.6542602e+00   5.8632557e+03
 5.6589398e+00   5.8466641e+03
 5.6636200e+00   5.8142929e+03
 5.6683002e+00   5.7942069e+03
 5.6729798e+00   5.7583131e+03
 5.6776600e+00   5.7439515e+03
 5.6823401e+00   5.7133328e+03
 5.6870198e+00   5.7165351e+03
 5.6917000e+00   5.6728166e+03
 5.6963801e+00   5.6819805e+03
 5.7010598e+00   5.6774016e+03
 5.7057400e+00   5.6545403e+03
 5.7104201e+00   5.6674167e+03
 5.7150998e+00   5.6441842e+03
 5.7197800e+00   5.6513079e+03
 5.7244601e+00   5.6510313e+03
 5.7291398e+00   5.6555989e+03
 5.7338200e+00   5.6485092e+03
 5.7385001e+00   5.6719186e+03
 5.7431798e+00   5.6640427e+03
 5.7478600e+00   5.6825674e+03
 5.7525401e+00   5.6794423e+03
 5.7572198e+00   5.6956441e+03
 5.7618999e+00   5.6905664e+03
 5.7665801e+00   5.6877360e+03
 5.7712598e+00   5.6789613e+03
 5.7759399e+00   5.6839529e+03
 5.7806201e+00   5.6806496e+03
 5.7852998e+00   5.6695822e+03
 5.7899799e+00   5.6541900e+03
 5.7946601e+00   5.6537386e+03
 5.7993398e+00   5.6540375e+03
 5.8040199e+00   5.6456416e+03
 5.8087001e+00   5.6510071e+03
 5.8133798e+00   5.6281521e+03
 5.8180599e+00   5.6238448e+03
 5.8227401e+00   5.6065634e+03
 5.8274202e+00   5.6159953e+03
 5.8320999e+00   5.5916886e+03
 5.8367801e+00   5.6147739e+03
 5.8414602e+00   5.6051033e+03
 5.8461399e+00   5.6126127e+03
 5.8508201e+00   5.6039983e+03
 5.8555002e+00   5.6184298e+03
 5.8601799e+00   5.6268425e+03
 5.8648601e+00   5.6515484e+03
 5.8695402e+00   5.6530610e+03
 5.8742199e+00   5.6696577e+03
 5.8789001e+00   5.6821908e+03
 5.8835802e+00   5.7200188e+03
 5.8882599e+00   5.7589092e+03
 5.8929400e+00   5.7632169e+03
 5.8976202e+00   5.8385258e+03
 5.9022999e+00   5.8734828e+03
 5.9069800e+00   6.0028442e+03
 5.9116602e+00   6.1626850e+03
 5.9163399e+00   6.3067026e+03
 5.9210200e+00   6.4780730e+03
 5.9257002e+00   6.5302853e+03
 5.9303799e+00   6.7362489e+03
 5.9350600e+00   7.2409952e+03
 5.9397402e+00   7.5150692e+03
 5.9444199e+00   7.6188029e+03
 5.9491000e+00   7.4741092e+03
 5.9537802e+00   7.2621837e+03
 5.9584599e+00   6.8415026e+03
 5.9631400e+00   6.7173771e+03
 5.9678202e+00   6.6687405e+03
 5.9724998e+00   6.6007575e+03
 5.9771800e+00   6.5359312e+03
 5.9818602e+00   6.4562422e+03
 5.9865398e+00   6.4299718e+03
 5.9912200e+00   6.4012306e+03
 5.9959002e+00   6.3526877e+03
 6.0005798e+00   6.2883263e+03
 6.0052600e+00   6.1801660e+03
 6.0099401e+00   6.1001096e+03
 6.0146198e+00   5.9942188e+03
 6.0193000e+00   5.9184057e+03
 6.0239801e+00   5.8821841e+03
 6.0286598e+00   5.8037529e+03
 6.0333400e+00   5.7813798e+03
 6.0380201e+00   5.7617237e+03
 6.0426998e+00   5.7331487e+03
 6.0473800e+00   5.7166434e+03
 6.0520601e+00   5.7119841e+03
 6.0567398e+00   5.6747713e+03
 6.0614200e+00   5.7166895e+03
 6.0661001e+00   5.6804813e+03
 6.0707798e+00   5.6734315e+03
 6.0754600e+00   5.6915198e+03
 6.0801401e+00   5.6858791e+03
 6.0848198e+00   5.6532156e+03
 6.0895000e+00   5.6996841e+03
 6.0941801e+00   5.6648704e+03
 6.0988598e+00   5.6792459e+03
 6.1035399e+00   5.6723785e+03
 6.1082201e+00   5.6561012e+03
 6.1128998e+00   5.6796588e+03
 6.1175799e+00   5.6702448e+03
 6.1222601e+00   5.6779598e+03
 6.1269398e+00   5.6671679e+03
 6.1316199e+00   5.6789286e+03
 6.1363001e+00   5.6742018e+03
 6.1409798e+00   5.6872508e+03
 6.1456599e+00   5.6624113e+03
 6.1503401e+00   5.7014003e+03
 6.1550202e+00   5.6761343e+03
 6.1596999e+00   5.6902096e+03
 6.1643801e+00   5.6928785e+03
 6.1690602e+00   5.7045800e+03
 6.1737399e+00   5.6981486e+03
 6.1784201e+00   5.7143329e+03
 6.1831002e+00   5.6950832e+03
 6.1877799e+00   5.7331676e+03
 6.1924601e+00   5.7071362e+03
 6.1971402e+00   5.7095646e+03
 6.2018199e+00   5.7325345e+03
 6.2065001e+00   5.7255322e+03
 6.2111802e+00   5.7307407e+03
 6.2158599e+00   5.7521899e+03
 6.2205400e+00   5.7282346e+03
 6.2252202e+00   5.7430082e+03
 6.2298999e+00   5.7555614e+03
 6.2345800e+00   5.7219297e+03
 6.2392602e+00   5.7627005e+03
 6.2439399e+00   5.7535235e+03
 6.2486200e+00   5.7567856e+03
 6.2533002e+00   5.7566202e+03
 6.2579799e+00   5.7535055e+03
 6.2626600e+00   5.7672073e+03
 6.2673402e+00   5.7755933e+03
 6.2720199e+00   5.7574637e+03
 6.2767000e+00   5.7926541e+03
 6.2813802e+00   5.7837709e+03
 6.2860599e+00   5.7831411e+03
 6.2907400e+00   5.7851172e+03
 6.2954202e+00   5.7944190e+03
 6.3000998e+00   5.7900268e+03
 6.3047800e+00   5.8143044e+03
 6.3094602e+00   5.7915326e+03
 6.3141398e+00   5.8140848e+03
 6.3188200e+00   5.8150934e+03
 6.3235002e+00   5.7993864e+03
 6.3281798e+00   5.8358076e+03
 6.3328600e+00   5.8282771e+03
 6.3375401e+00   5.8424753e+03
 6.3422198e+00   5.8421004e+03
 6.3469000e+00   5.8247573e+03
 6.3515801e+00   5.8452670e+03
 6.3562598e+00   5.8651216e+03
 6.3609400e+00   5.8414783e+03
 6.3656201e+00   5.8704775e+03
 6.3702998e+00   5.8444164e+03
 6.3749800e+00   5.8491636e+03
 6.3796601e+00   5.8388161e+03
 6.3843398e+00   5.8664091e+03
 6.3890200e+00   5.8446972e+03
 6.3937001e+00   5.8735257e+03
 6.3983798e+00   5.8515558e+03
 6.4030600e+00   5.8772236e+03
 6.4077401e+00   5.8772913e+03
 6.4124198e+00   5.8546811e+03
 6.4171000e+00   5.9073520e+03
 6.4217801e+00   5.8736551e+03
 6.4264598e+00   5.8805997e+03
 6.4311399e+00   5.9008018e+03
 6.4358201e+00   5.8992074e+03
 6.4404998e+00   5.9146182e+03
 6.4451799e+00   5.9301623e+03
 6.4498601e+00   5.9032860e+03
 6.4545398e+00   5.9067681e+03
 6.4592199e+00   5.9024482e+03
 6.4639001e+00   5.9143314e+03
 6.4685798e+00   5.9260920e+03
 6.4732599e+00   5.9139053e+03
 6.4779401e+00   5.9321514e+03
 6.4826198e+00   5.9151527e+03
 6.4872999e+00   5.9298620e+03
 6.4919801e+00   5.9347879e+03
 6.4966602e+00   5.9499239e+03
 6.5013399e+00   5.9256629e+03
 6.5060201e+00   5.9709523e+03
 6.5107002e+00   5.9493943e+03
 6.5153799e+00   5.9777896e+03
 6.5200601e+00   5.9844065e+03
 6.5247402e+00   5.9836118e+03
 6.5294199e+00   5.9658195e+03
 6.5341001e+00   5.9832727e+03
 6.5387802e+00   5.9782714e+03
 6.5434599e+00   5.9964234e+03
 6.5481400e+00   6.0077607e+03
 6.5528202e+00   6.0194490e+03
 6.5574999e+00   6.0241923e+03
 6.5621800e+00   6.0083823e+03
 6.5668602e+00   6.0393101e+03
 6.5715399e+00   6.0403912e+03
 6.5762200e+00   6.0379856e+03
 6.5809002e+00   6.0557459e+03
 6.5855799e+00   6.0616606e+03
 6.5902600e+00   6.0346485e+03
 6.5949402e+00   6.0952903e+03
 6.5996199e+00   6.0533116e+03
 6.6043000e+00   6.1059932e+03
 6.6089802e+00   6.0919560e+03
 6.6136599e+00   6.0955081e+03
 6.6183400e+00   6.1251183e+03
 6.6230202e+00   6.1333513e+03
 6.6276999e+00   6.1227247e+03
 6.6323800e+00   6.1477003e+03
 6.6370602e+00   6.1542528e+03
 6.6417398e+00   6.1430742e+03
 6.6464200e+00   6.2074860e+03
 6.6511002e+00   6.1667493e+03
 6.6557798e+00   6.2111021e+03
 6.6604600e+00   6.2149375e+03
 6.6651402e+00   6.2390565e+03
 6.6698198e+00   6.2269265e+03
 6.6745000e+00   6.2650544e+03
 6.6791801e+00   6.2504240e+03
 6.6838598e+00   6.3093286e+03
 6.6885400e+00   6.2642991e+03
 6.6932201e+00   6.3295032e+03
 6.6978998e+00   6.3061397e+03
 6.7025800e+00   6.3302543e+03
 6.7072601e+00   6.3353009e+03
 6.7119398e+00   6.3617345e+03
 6.7166200e+00   6.3548596e+03
 6.7213001e+00   6.3728358e+03
 6.7259798e+00   6.3951181e+03
 6.7306600e+00   6.3839386e+03
 6.7353401e+00   6.4481030e+03
 6.7400198e+00   6.4268097e+03
 6.7447000e+00   6.4759506e+03
 6.7493801e+00   6.4402976e+03
 6.7540598e+00   6.4801193e+03
 6.7587399e+00   6.4896468e+03
 6.7634201e+00   6.5241223e+03
 6.7680998e+00   6.4869150e+03
 6.7727799e+00   6.5714892e+03
 6.7774601e+00   6.4882305e+03
 6.7821398e+00   6.5387911e+03
 6.7868199e+00   6.5237071e+03
 6.7915001e+00   6.5471541e+03
 6.7961798e+00   6.5348117e+03
 6.8008599e+00   6.5271501e+03
 6.8055401e+00   6.5220949e+03
 6.8102198e+00   6.5151369e+03
 6.8148999e+00   6.5242258e+03
 6.8195801e+00   6.5309317e+03
 6.8242602e+00   6.5592959e+03
 6.8289399e+00   6.5236345e+03
 6.8336201e+00   6.5835737e+03
 6.8383002e+00   6.5464397e+03
 6.8429799e+00   6.5609995e+03
 6.8476601e+00   6.5973423e+03
 6.8523402e+00   6.5675423e+03
 6.8570199e+00   6.5583431e+03
 6.8617001e+00   6.5763369e+03
 6.8663802e+00   6.5792557e+03
 6.8710599e+00   6.6086881e+03
 6.8757401e+00   6.5922392e+03
 6.8804202e+00   6.6098803e+03
 6.8850999e+00   6.6141687e+03
 6.8897800e+00   6.6234349e+03
 6.8944602e+00   6.6109034e+03
 6.8991399e+00   6.6842352e+03
 6.9038200e+00   6.6544726e+03
 6.9085002e+00   6.7008315e+03
 6.9131799e+00   6.7057229e+03
 6.9178600e+00   6.7663809e+03
 6.9225402e+00   6.7409936e+03
 6.9272199e+00   6.7873726e+03
 6.9319000e+00   6.7601782e+03
 6.9365802e+00   6.8222791e+03
 6.9412599e+00   6.7504613e+03
 6.9459400e+00   6.8146999e+03
 6.9506202e+00   6.8348633e+03
 6.9552999e+00   6.8790487e+03
 6.9599800e+00   6.9004148e+03
 6.9646602e+00   6.9586619e+03
 6.9693398e+00   6.9504150e+03
 6.9740200e+00   7.0628394e+03
 6.9787002e+00   7.1081037e+03
 6.9833798e+00   7.1781328e+03
 6.9880600e+00   7.3136877e+03
 6.9927402e+00   7.4301132e+03
 6.9974198e+00   7.6119787e+03
 7.0021000e+00   7.7904806e+03
 7.0067801e+00   8.1180975e+03
 7.0114598e+00   8.4125427e+03
 7.0161400e+00   8.7715113e+03
 7.0208201e+00   9.0441767e+03
 7.0254998e+00   9.3683287e+03
 7.0301800e+00   9.4691256e+03
 7.0348601e+00   9.5736261e+03
 7.0395398e+00   9.4449232e+03
 7.0442200e+00   9.2938727e+03
 7.0489001e+00   8.9840061e+03
 7.0535798e+00   8.6867572e+03
 7.0582600e+00   8.3551945e+03
 7.0629401e+00   8.1441766e+03
 7.0676198e+00   7.8112184e+03
 7.0723000e+00   7.6652023e+03
 7.0769801e+00   7.4282046e+03
 7.0816598e+00   7.2674968e+03
 7.0863400e+00   7.1553884e+03
 7.0910201e+00   6.9938336e+03
 7.0956998e+00   6.8981236e+03
 7.1003799e+00   6.8453777e+03
 7.1050601e+00   6.8025892e+03
 7.1097398e+00   6.7171343e+03
 7.1144199e+00   6.7148710e+03
 7.1191001e+00   6.6625610e+03
 7.1237798e+00   6.6761038e+03
 7.1284599e+00   6.6379471e+03
 7.1331401e+00   6.6245904e+03
 7.1378198e+00   6.5734560e+03
 7.1424999e+00   6.6034946e+03
 7.1471801e+00   6.5630721e+03
 7.1518602e+00   6.5649893e+03
 7.1565399e+00   6.5369806e+03
 7.1612201e+00   6.5486689e+03
 7.1659002e+00   6.4916945e+03
 7.1705799e+00   6.5012767e+03
 7.1752601e+00   6.5155193e+03
 7.1799402e+00   6.4933818e+03
 7.1846199e+00   6.4916197e+03
 7.1893001e+00   6.4761429e+03
 7.1939802e+00   6.4714714e+03
 7.1986599e+00   6.4731531e+03
 7.2033401e+00   6.4687353e+03
 7.2080202e+00   6.4461545e+03
 7.2126999e+00   6.4829432e+03
 7.2173800e+00   6.4197277e+03
 7.2220602e+00   6.4516997e+03
 7.2267399e+00   6.4318525e+03
 7.2314200e+00   6.4387063e+03
 7.2361002e+00   6.4255027e+03
 7.2407799e+00   6.4379195e+03
 7.2454600e+00   6.4251495e+03
 7.2501402e+00   6.4705225e+03
 7.2548199e+00   6.4681344e+03
 7.2595000e+00   6.4633530e+03
 7.2641802e+00   6.4779036e+03
 7.2688599e+00   6.4658838e+03
 7.2735400e+00   6.4671325e+03
 7.2782202e+00   6.4623619e+03
 7.2828999e+00   6.4519840e+03
 7.2875800e+00   6.4404445e+03
 7.2922602e+00   6.4379258e+03
 7.2969398e+00   6.4383215e+03
 7.3016200e+00   6.4361116e+03
 7.3063002e+00   6.4205008e+03
 7.3109798e+00   6.4450857e+03
 7.3156600e+00   6.4291898e+03
 7.3203402e+00   6.4491051e+03
 7.3250198e+00   6.4518105e+03
 7.3297000e+00   6.4456923e+03
 7.3343801e+00   6.4501933e+03
 7.3390598e+00   6.4783679e+03
 7.3437400e+00   6.4724737e+03
 7.3484201e+00   6.4708405e+03
 7.3530998e+00   6.4757710e+03
 7.3577800e+00   6.4852698e+03
 7.3624601e+00   6.4783598e+03
 7.3671398e+00   6.4577428e+03
 7.3718200e+00   6.4782649e+03
 7.3765001e+00   6.4669738e+03
 7.3811798e+00   6.4549908e+03
 7.3858600e+00   6.4478241e+03
 7.3905401e+00   6.4371507e+03
 7.3952198e+00   6.4136321e+03
 7.3999000e+00   6.4253366e+03
 7.4045801e+00   6.4099693e+03
 7.4092598e+00   6.3874542e+03
 7.4139400e+00   6.3983419e+03
 7.4186201e+00   6.3664315e+03
 7.4232998e+00   6.3792867e+03
 7.4279799e+00   6.3542992e+03
 7.4326601e+00   6.3606431e+03
 7.4373398e+00   6.3586190e+03
 7.4420199e+00   6.3637256e+03
 7.4467001e+00   6.3472326e+03
 7.4513798e+00   6.3691926e+03
 7.4560599e+00   6.3572181e+03
 7.4607401e+00   6.3540261e+03
 7.4654198e+00   6.3623402e+03
 7.4700999e+00   6.3496331e+03
 7.4747801e+00   6.3626001e+03
 7.4794598e+00   6.3450498e+03
 7.4841399e+00   6.3739217e+03
 7.4888201e+00   6.3608850e+03
 7.4935002e+00   6.3640387e+03
 7.4981799e+00   6.3623084e+03
 7.5028601e+00   6.3912553e+03
 7.5075402e+00   6.3924349e+03
 7.5122199e+00   6.4233076e+03
 7.5169001e+00   6.4271521e+03
 7.5215802e+00   6.4531910e+03
 7.5262599e+00   6.4837056e+03
 7.5309401e+00   6.5075853e+03
 7.5356202e+00   6.5535076e+03
 7.5402999e+00   6.5969185e+03
 7.5449800e+00   6.6864462e+03
 7.5496602e+00   6.7603475e+03
 7.5543399e+00   6.8856187e+03
 7.5590200e+00   7.0353304e+03
 7.5637002e+00   7.2345415e+03
 7.5683799e+00   7.4718191e+03
 7.5730600e+00   7.8199425e+03
 7.5777402e+00   8.2103032e+03
 7.5824199e+00   8.7379469e+03
 7.5871000e+00   9.3251837e+03
 7.5917802e+00   9.9934496e+03
 7.5964599e+00   1.0709191e+04
 7.6011400e+00   1.1373880e+04
 7.6058202e+00   1.1906025e+04
 7.6104999e+00   1.2220913e+04
 7.6151800e+00   1.2287758e+04
 7.6198602e+00   1.2011392e+04
 7.6245399e+00   1.1612164e+04
 7.6292200e+00   1.0943602e+04
 7.6339002e+00   1.0273518e+04
 7.6385798e+00   9.5382488e+03
 7.6432600e+00   8.8933419e+03
 7.6479402e+00   8.3150014e+03
 7.6526198e+00   7.9048430e+03
 7.6573000e+00   7.4835187e+03
 7.6619802e+00   7.2295863e+03
 7.6666598e+00   6.9542765e+03
 7.6713400e+00   6.7405056e+03
 7.6760201e+00   6.5858900e+03
 7.6806998e+00   6.4824043e+03
 7.6853800e+00   6.3984668e+03
 7.6900601e+00   6.3215644e+03
 7.6947398e+00   6.2550948e+03
 7.6994200e+00   6.1960098e+03
 7.7041001e+00   6.1660613e+03
 7.7087798e+00   6.1345018e+03
 7.7134600e+00   6.1113528e+03
 7.7181401e+00   6.0624521e+03
 7.7228198e+00   6.0604456e+03
 7.7275000e+00   6.0227639e+03
 7.7321801e+00   6.0191902e+03
 7.7368598e+00   5.9808751e+03
 7.7415400e+00   5.9838988e+03
 7.7462201e+00   5.9240635e+03
 7.7508998e+00   5.9100794e+03
 7.7555799e+00   5.8763013e+03
 7.7602601e+00   5.8913502e+03
 7.7649398e+00   5.8523888e+03
 7.7696199e+00   5.8497246e+03
 7.7743001e+00   5.8481978e+03
 7.7789798e+00   5.8019543e+03
 7.7836599e+00   5.8236559e+03
 7.7883401e+00   5.7777745e+03
 7.7930198e+00   5.7964955e+03
 7.7976999e+00   5.7750349e+03
 7.8023801e+00   5.7649038e+03
 7.8070598e+00   5.7434596e+03
 7.8117399e+00   5.7664208e+03
 7.8164201e+00   5.7186858e+03
 7.8211002e+00   5.7343764e+03
 7.8257799e+00   5.7074567e+03
 7.8304601e+00   5.7014423e+03
 7.8351402e+00   5.7312747e+03
 7.8398199e+00   5.6977001e+03
 7.8445001e+00   5.6771295e+03
 7.8491802e+00   5.6985939e+03
 7.8538599e+00   5.6462504e+03
 7.8585401e+00   5.6617716e+03
 7.8632202e+00   5.6762344e+03
 7.8678999e+00   5.6252933e+03
 7.8725801e+00   5.6546896e+03
 7.8772602e+00   5.6424260e+03
 7.8819399e+00   5.6352611e+03
 7.8866200e+00   5.6263107e+03
 7.8913002e+00   5.6177437e+03
 7.8959799e+00   5.6196729e+03
 7.9006600e+00   5.6255654e+03
 7.9053402e+00   5.5851369e+03
 7.9100199e+00   5.6193549e+03
 7.9147000e+00   5.5843582e+03
 7.9193802e+00   5.5810727e+03
 7.9240599e+00   5.5950968e+03
 7.9287400e+00   5.5650184e+03
 7.9334202e+00   5.5708194e+03
 7.9380999e+00   5.5753869e+03
 7.9427800e+00   5.5636589e+03
 7.9474602e+00   5.5739113e+03
 7.9521399e+00   5.5655178e+03
 7.9568200e+00   5.5572026e+03
 7.9615002e+00   5.5914208e+03
 7.9661798e+00   5.5636535e+03
 7.9708600e+00   5.5713427e+03
 7.9755402e+00   5.5709779e+03
 7.9802198e+00   5.5598046e+03
 7.9849000e+00   5.5961458e+03
 7.9895802e+00   5.6068418e+03
 7.9942598e+00   5.6039366e+03
 7.9989400e+00   5.6443634e+03
 8.0036201e+00   5.6543309e+03
 8.0082998e+00   5.7059047e+03
 8.0129805e+00   5.7664789e+03
 8.0176601e+00   5.8236826e+03
 8.0223398e+00   5.9607550e+03
 8.0270205e+00   6.0856953e+03
 8.0317001e+00   6.2511875e+03
 8.0363798e+00   6.5266602e+03
 8.0410604e+00   6.8205901e+03
 8.0457401e+00   7.2828134e+03
 8.0504198e+00   7.8607580e+03
 8.0551004e+00   8.4578505e+03
 8.0597801e+00   9.2416984e+03
 8.0644598e+00   1.0008471e+04
 8.0691404e+00   1.0752820e+04
 8.0738201e+00   1.1388515e+04
 8.0784998e+00   1.1743567e+04
 8.0831804e+00   1.1808805e+04
 8.0878601e+00   1.1654719e+04
 8.0925398e+00   1.1136987e+04
 8.0972204e+00   1.0465225e+04
 8.1019001e+00   9.6993636e+03
 8.1065798e+00   8.9087304e+03
 8.1112604e+00   8.2237094e+03
 8.1159401e+00   7.6018653e+03
 8.1206198e+00   7.0820411e+03
 8.1253004e+00   6.6851577e+03
 8.1299801e+00   6.3981926e+03
 8.1346598e+00   6.1688520e+03
 8.1393404e+00   6.0169888e+03
 8.1440201e+00   5.8431124e+03
 8.1486998e+00   5.7519355e+03
 8.1533804e+00   5.6286192e+03
 8.1580601e+00   5.5959786e+03
 8.1627398e+00   5.5213835e+03
 8.1674204e+00   5.4997382e+03
 8.1721001e+00   5.4324568e+03
 8.1767797e+00   5.4239327e+03
 8.1814604e+00   5.3820617e+03
 8.1861401e+00   5.4074280e+03
 8.1908197e+00   5.3506081e+03
 8.1955004e+00   5.3457136e+03
 8.2001801e+00   5.3346096e+03
 8.2048597e+00   5.3050855e+03
 8.2095404e+00   5.3278961e+03
 8.2142200e+00   5.3147647e+03
 8.2188997e+00   5.3105598e+03
 8.2235804e+00   5.2948452e+03
 8.2282600e+00   5.3053700e+03
 8.2329397e+00   5.2965737e+03
 8.2376204e+00   5.3213827e+03
 8.2423000e+00   5.2939335e+03
 8.2469797e+00   5.3073811e+03
 8.2516603e+00   5.2761508e+03
 8.2563400e+00   5.2581024e+03
 8.2610197e+00   5.2639504e+03
 8.2657003e+00   5.2609064e+03
 8.2703800e+00   5.2441620e+03
 8.2750597e+00   5.2526839e+03
 8.2797403e+00   5.2347937e+03
 8.2844200e+00   5.2127342e+03
 8.2890997e+00   5.2421992e+03
 8.2937803e+00   5.2065607e+03
 8.2984600e+00   5.2542646e+03
 8.3031397e+00   5.2557680e+03
 8.3078203e+00   5.2786262e+03
 8.3125000e+00   5.2766046e+03
 8.3171797e+00   5.3058780e+03
 8.3218603e+00   5.3246875e+03
 8.3265400e+00   5.3605289e+03
 8.3312197e+00   5.3936410e+03
 8.3359003e+00   5.4490649e+03
 8.3405800e+00   5.4969860e+03
 8.3452597e+00   5.6059158e+03
 8.3499403e+00   5.7443190e+03
 8.3546200e+00   5.8995449e+03
 8.3592997e+00   6.0737820e+03
 8.3639803e+00   6.3258232e+03
 8.3686600e+00   6.5848634e+03
 8.3733397e+00   6.9494303e+03
 8.3780203e+00   7.3337186e+03
 8.3827000e+00   7.7191616e+03
 8.3873796e+00   7.8163509e+03
 8.3920603e+00   7.9781715e+03
 8.3967400e+00   8.1426191e+03
 8.4014196e+00   8.3402083e+03
 8.4061003e+00   8.2817136e+03
 8.4107800e+00   8.1416847e+03
 8.4154596e+00   7.7091568e+03
 8.4201403e+00   7.4143304e+03
 8.4248199e+00   6.6875802e+03
 8.4294996e+00   6.4459138e+03
 8.4341803e+00   6.2333915e+03
 8.4388599e+00   6.0428123e+03
 8.4435396e+00   5.8009636e+03
 8.4482203e+00   5.5611360e+03
 8.4528999e+00   5.4516665e+03
 8.4575796e+00   5.3556389e+03
 8.4622602e+00   5.2898112e+03
 8.4669399e+00   5.2715817e+03
 8.4716196e+00   5.2144373e+03
 8.4763002e+00   5.1962918e+03
 8.4809799e+00   5.1652117e+03
 8.4856596e+00   5.1531469e+03
 8.4903402e+00   5.1300891e+03
 8.4950199e+00   5.1476233e+03
 8.4996996e+00   5.1240718e+03
 8.5043802e+00   5.1228808e+03
 8.5090599e+00   5.0925675e+03
 8.5137396e+00   5.1021164e+03
 8.5184202e+00   5.0823102e+03
 8.5230999e+00   5.0935448e+03
 8.5277796e+00   5.0722712e+03
 8.5324602e+00   5.0834166e+03
 8.5371399e+00   5.0715963e+03
 8.5418196e+00   5.0642069e+03
 8.5465002e+00   5.0579696e+03
 8.5511799e+00   5.0646913e+03
 8.5558596e+00   5.0586211e+03
 8.5605402e+00   5.0314008e+03
 8.5652199e+00   5.0439975e+03
 8.5698996e+00   5.0179411e+03
 8.5745802e+00   5.0438395e+03
 8.5792599e+00   5.0009822e+03
 8.5839396e+00   5.0269499e+03
 8.5886202e+00   5.0171642e+03
 8.5932999e+00   5.0143128e+03
 8.5979795e+00   5.0062427e+03
 8.6026602e+00   5.0104583e+03
 8.6073399e+00   4.9998754e+03
 8.6120195e+00   5.0050434e+03
 8.6167002e+00   4.9933166e+03
 8.6213799e+00   4.9852267e+03
 8.6260595e+00   4.9814611e+03
 8.6307402e+00   4.9755045e+03
 8.6354198e+00   4.9817395e+03
 8.6400995e+00   4.9825643e+03
 8.6447802e+00   4.9724675e+03
 8.6494598e+00   4.9579577e+03
 8.6541405e+00   4.9706793e+03
 8.6588202e+00   4.9615032e+03
 8.6634998e+00   4.9622299e+03
 8.6681805e+00   4.9469589e+03
 8.6728601e+00   4.9505806e+03
 8.6775398e+00   4.9346017e+03
 8.6822205e+00   4.9296787e+03
 8.6869001e+00   4.9412977e+03
 8.6915798e+00   4.9315018e+03
 8.6962605e+00   4.9379347e+03
 8.7009401e+00   4.9241038e+03
 8.7056198e+00   4.9262429e+03
 8.7103004e+00   4.9263088e+03
 8.7149801e+00   4.9301272e+03
 8.7196598e+00   4.9192371e+03
 8.7243404e+00   4.9338149e+03
 8.7290201e+00   4.9272251e+03
 8.7336998e+00   4.9279783e+03
 8.7383804e+00   4.9163543e+03
 8.7430601e+00   4.9280486e+03
 8.7477398e+00   4.9350895e+03
 8.7524204e+00   4.9319694e+03
 8.7571001e+00   4.9370850e+03
 8.7617798e+00   4.9451737e+03
 8.7664604e+00   4.9559299e+03
 8.7711401e+00   4.9600186e+03
 8.7758198e+00   4.9749924e+03
 8.7805004e+00   5.0025176e+03
 8.7851801e+00   5.0223089e+03
 8.7898598e+00   5.0541926e+03
 8.7945404e+00   5.1035080e+03
 8.7992201e+00   5.1386808e+03
 8.8038998e+00   5.2106958e+03
 8.8085804e+00   5.2758805e+03
 8.8132601e+00   5.3848620e+03
 8.8179398e+00   5.4821368e+03
 8.8226204e+00   5.6340040e+03
 8.8273001e+00   5.8099067e+03
 8.8319798e+00   5.9900532e+03
 8.8366604e+00   6.1577447e+03
 8.8413401e+00   6.3343062e+03
 8.8460197e+00   6.4563172e+03
 8.8507004e+00   6.5227057e+03
 8.8553801e+00   6.5282274e+03
 8.8600597e+00   6.4670400e+03
 8.8647404e+00   6.3655303e+03
 8.8694201e+00   6.1835797e+03
 8.8740997e+00   6.0052121e+03
 8.8787804e+00   5.8234183e+03
 8.8834600e+00   5.6451608e+03
 8.8881397e+00   5.4945353e+03
 8.8928204e+00   5.3825502e+03
 8.8975000e+00   5.2613480e+03
 8.9021797e+00   5.1849804e+03
 8.9068604e+00   5.1074318e+03
 8.9115400e+00   5.0676081e+03
 8.9162197e+00   5.0175837e+03
 8.9209003e+00   4.9911505e+03
 8.9255800e+00   4.9812098e+03
 8.9302597e+00   4.9587921e+03
 8.9349403e+00   4.9313431e+03
 8.9396200e+00   4.9333785e+03
 8.9442997e+00   4.9305218e+03
 8.9489803e+00   4.9197749e+03
 8.9536600e+00   4.9263504e+03
 8.9583397e+00   4.9158252e+03
 8.9630203e+00   4.9320794e+03
 8.9677000e+00   4.9375485e+03
 8.9723797e+00   4.9722344e+03
 8.9770603e+00   4.9868529e+03
 8.9817400e+00   5.0329616e+03
 8.9864197e+00   5.0687456e+03
 8.9911003e+00   5.1226890e+03
 8.9957800e+00   5.1819230e+03
 9.0004597e+00   5.2685060e+03
 9.0051403e+00   5.3711240e+03
 9.0098200e+00   5.4674179e+03
 9.0144997e+00   5.5555400e+03
 9.0191803e+00   5.6116820e+03
 9.0238600e+00   5.6622437e+03
 9.0285397e+00   5.6713616e+03
 9.0332203e+00   5.6508050e+03
 9.0379000e+00   5.5895766e+03
 9.0425797e+00   5.5066735e+03
 9.0472603e+00   5.3994213e+03
 9.0519400e+00   5.3021573e+03
 9.0566196e+00   5.1886652e+03
 9.0613003e+00   5.1266795e+03
 9.0659800e+00   5.0576233e+03
 9.0706596e+00   4.9952047e+03
 9.0753403e+00   4.9584391e+03
 9.0800200e+00   4.9202944e+03
 9.0846996e+00   4.8919993e+03
 9.0893803e+00   4.8751446e+03
 9.0940599e+00   4.8658295e+03
 9.0987396e+00   4.8532255e+03
 9.1034203e+00   4.8458359e+03
 9.1080999e+00   4.8395846e+03
 9.1127796e+00   4.8305707e+03
 9.1174603e+00   4.8281037e+03
 9.1221399e+00   4.8309291e+03
 9.1268196e+00   4.8308333e+03
 9.1315002e+00   4.8315966e+03
 9.1361799e+00   4.8194748e+03
 9.1408596e+00   4.8304117e+03
 9.1455402e+00   4.8324659e+03
 9.1502199e+00   4.8322298e+03
 9.1548996e+00   4.8463009e+03
 9.1595802e+00   4.8528363e+03
 9.1642599e+00   4.8704266e+03
 9.1689396e+00   4.8811319e+03
 9.1736202e+00   4.8898965e+03
 9.1782999e+00   4.9100168e+03
 9.1829796e+00   4.9361961e+03
 9.1876602e+00   4.9482355e+03
 9.1923399e+00   4.9905985e+03
 9.1970196e+00   5.0151888e+03
 9.2017002e+00   5.0877583e+03
 9.2063799e+00   5.1626275e+03
 9.2110596e+00   5.2576201e+03
 9.2157402e+00   5.3852306e+03
 9.2204199e+00   5.5153667e+03
 9.2250996e+00   5.6825040e+03
 9.2297802e+00   5.9098537e+03
 9.2344599e+00   6.1309109e+03
 9.2391396e+00   6.3968412e+03
 9.2438202e+00   6.6298978e+03
 9.2484999e+00   6.8240303e+03
 9.2531796e+00   6.9920580e+03
 9.2578602e+00   7.0608763e+03
 9.2625399e+00   7.0499747e+03
 9.2672195e+00   6.9577425e+03
 9.2719002e+00   6.7903604e+03
 9.2765799e+00   6.5727271e+03
 9.2812595e+00   6.3260420e+03
 9.2859402e+00   6.0951293e+03
 9.2906199e+00   5.8836348e+03
 9.2952995e+00   5.6832709e+03
 9.2999802e+00   5.5095462e+03
 9.3046598e+00   5.3874673e+03
 9.3093395e+00   5.3009993e+03
 9.3140202e+00   5.2165097e+03
 9.3186998e+00   5.1779082e+03
 9.3233805e+00   5.1497495e+03
 9.3280602e+00   5.1349831e+03
 9.3327398e+00   5.1429707e+03
 9.3374205e+00   5.1482691e+03
 9.3421001e+00   5.1824574e+03
 9.3467798e+00   5.2062638e+03
 9.3514605e+00   5.2457335e+03
 9.3561401e+00   5.2840100e+03
 9.3608198e+00   5.2948840e+03
 9.3655005e+00   5.3192810e+03
 9.3701801e+00   5.3102298e+03
 9.3748598e+00   5.2846707e+03
 9.3795404e+00   5.2628232e+03
 9.3842201e+00   5.2040688e+03
 9.3888998e+00   5.1844789e+03
 9.3935804e+00   5.1581765e+03
 9.3982601e+00   5.1408386e+03
 9.4029398e+00   5.1260416e+03
 9.4076204e+00   5.1451444e+03
 9.4123001e+00   5.1747426e+03
 9.4169798e+00   5.2239109e+03
 9.4216604e+00   5.2947341e+03
 9.4263401e+00   5.3860160e+03
 9.4310198e+00   5.4829592e+03
 9.4357004e+00   5.6015971e+03
 9.4403801e+00   5.7399945e+03
 9.4450598e+00   5.8528933e+03
 9.4497404e+00   5.9679173e+03
 9.4544201e+00   6.0452545e+03
 9.4590998e+00   6.0869744e+03
 9.4637804e+00   6.1276667e+03
 9.4684601e+00   6.1143139e+03
 9.4731398e+00   6.1051658e+03
 9.4778204e+00   6.1020044e+03
 9.4825001e+00   6.0922115e+03
 9.4871798e+00   6.0989026e+03
 9.4918604e+00   6.0920263e+03
 9.4965401e+00   6.0784088e+03
 9.5012197e+00   6.0667359e+03
 9.5059004e+00   5.9980770e+03
 9.5105801e+00   5.9255976e+03
 9.5152597e+00   5.8301077e+03
 9.5199404e+00   5.7056570e+03
 9.5246201e+00   5.5865176e+03
 9.5292997e+00   5.4832756e+03
 9.5339804e+00   5.3564937e+03
 9.5386600e+00   5.2861506e+03
 9.5433397e+00   5.2103340e+03
 9.5480204e+00   5.1299035e+03
 9.5527000e+00   5.0845037e+03
 9.5573797e+00   5.0338203e+03
 9.5620604e+00   5.0106728e+03
 9.5667400e+00   4.9782812e+03
 9.5714197e+00   4.9562646e+03
 9.5761003e+00   4.9473458e+03
 9.5807800e+00   4.9184948e+03
 9.5854597e+00   4.9218455e+03
 9.5901403e+00   4.9057811e+03
 9.5948200e+00   4.9076922e+03
 9.5994997e+00   4.9030518e+03
 9.6041803e+00   4.8971788e+03
 9.6088600e+00   4.8938750e+03
 9.6135397e+00   4.8874880e+03
 9.6182203e+00   4.8858366e+03
 9.6229000e+00   4.8800966e+03
 9.6275797e+00   4.8923140e+03
 9.6322603e+00   4.8825327e+03
 9.6369400e+00   4.8917407e+03
 9.6416197e+00   4.8873777e+03
 9.6463003e+00   4.8902833e+03
 9.6509800e+00   4.8922668e+03
 9.6556597e+00   4.8943895e+03
 9.6603403e+00   4.8981769e+03
 9.6650200e+00   4.8953657e+03
 9.6696997e+00   4.8929579e+03
 9.6743803e+00   4.9061961e+03
 9.6790600e+00   4.9031328e+03
 9.6837397e+00   4.9067982e+03
 9.6884203e+00   4.9225558e+03
 9.6931000e+00   4.9189010e+03
 9.6977797e+00   4.9202012e+03
 9.7024603e+00   4.9275322e+03
 9.7071400e+00   4.9416462e+03
 9.7118196e+00   4.9468580e+03
 9.7165003e+00   4.9607510e+03
 9.7211800e+00   4.9743010e+03
 9.7258596e+00   4.9970183e+03
 9.7305403e+00   5.0034487e+03
 9.7352200e+00   5.0451407e+03
 9.7398996e+00   5.0895554e+03
 9.7445803e+00   5.1268032e+03
 9.7492599e+00   5.1907471e+03
 9.7539396e+00   5.2610091e+03
 9.7586203e+00   5.3744935e+03
 9.7632999e+00   5.4953498e+03
 9.7679796e+00   5.6339158e+03
 9.7726603e+00   5.8166193e+03
 9.7773399e+00   6.0367094e+03
 9.7820196e+00   6.2813002e+03
 9.7867002e+00   6.5733538e+03
 9.7913799e+00   6.8427000e+03
 9.7960596e+00   7.1277104e+03
 9.8007402e+00   7.3449349e+03
 9.8054199e+00   7.5191460e+03
 9.8100996e+00   7.5984815e+03
 9.8147802e+00   7.6048814e+03
 9.8194599e+00   7.5526233e+03
 9.8241396e+00   7.4731867e+03
 9.8288202e+00   7.3542653e+03
 9.8334999e+00   7.5752616e+03
 9.8381796e+00   7.8289127e+03
 9.8428602e+00   8.3826762e+03
 9.8475399e+00   8.8750612e+03
 9.8522196e+00   9.1088777e+03
 9.8569002e+00   1.0125283e+04
 9.8615799e+00   1.0825102e+04
 9.8662596e+00   1.0961478e+04
 9.8709402e+00   1.0369100e+04
 9.8756199e+00   9.4886938e+03
 9.8802996e+00   8.3445017e+03
 9.8849802e+00   6.9419399e+03
 9.8896599e+00   6.6727844e+03
 9.8943396e+00   6.3283719e+03
 9.8990202e+00   5.9078102e+03
 9.9036999e+00   5.6140268e+03
 9.9083796e+00   5.4075315e+03
 9.9130602e+00   5.2734433e+03
 9.9177399e+00   5.2056144e+03
 9.9224195e+00   5.1625145e+03
 9.9271002e+00   5.1238501e+03
 9.9317799e+00   5.0914828e+03
 9.9364595e+00   5.0798418e+03
 9.9411402e+00   5.0608044e+03
 9.9458199e+00   5.0494571e+03
 9.9504995e+00   5.0507285e+03
 9.9551802e+00   5.0277008e+03
 9.9598598e+00   5.0446653e+03
 9.9645395e+00   5.0334790e+03
 9.9692202e+00   5.0415427e+03
 9.9738998e+00   5.0305295e+03
 9.9785805e+00   5.0308814e+03
 9.9832602e+00   5.0332562e+03
 9.9879398e+00   5.0452626e+03
 9.9926205e+00   5.0331024e+03
 9.9973001e+00   5.0438737e+03
 1.0001980e+01   5.0424792e+03
 1.0006660e+01   5.0498728e+03
 1.0011340e+01   5.0370322e+03
 1.0016020e+01   5.0481100e+03
 1.0020700e+01   5.0504318e+03
 1.0025380e+01   5.0573587e+03
 1.0030060e+01   5.0607884e+03
 1.0034740e+01   5.0763328e+03
 1.0039420e+01   5.0873385e+03
 1.0044100e+01   5.1061935e+03
 1.0048780e+01   5.1333497e+03
 1.0053460e+01   5.1349928e+03
 1.0058140e+01   5.1606481e+03
 1.0062820e+01   5.1642917e+03
 1.0067500e+01   5.1734186e+03
 1.0072180e+01   5.1494060e+03
 1.0076860e+01   5.1655914e+03
 1.0081540e+01   5.1274962e+03
 1.0086220e+01   5.1220482e+03
 1.0090900e+01   5.1050569e+03
 1.0095580e+01   5.0826447e+03
 1.0100260e+01   5.0600725e+03
 1.0104940e+01   5.0517973e+03
 1.0109620e+01   5.0431112e+03
 1.0114300e+01   5.0254283e+03
 1.0118980e+01   5.0370233e+03
 1.0123660e+01   5.0095985e+03
 1.0128340e+01   5.0139996e+03
 1.0133020e+01   5.0034593e+03
 1.0137700e+01   5.0069776e+03
 1.0142380e+01   5.0116835e+03
 1.0147060e+01   5.0107933e+03
 1.0151740e+01   4.9992115e+03
 1.0156420e+01   5.0031817e+03
 1.0161100e+01   5.0005856e+03
 1.0165780e+01   5.0002601e+03
 1.0170460e+01   5.0117315e+03
 1.0175140e+01   5.0104537e+03
 1.0179820e+01   5.0033176e+03
 1.0184500e+01   5.0000656e+03
 1.0189180e+01   4.9979444e+03
 1.0193860e+01   5.0115987e+03
 1.0198540e+01   5.0189733e+03
 1.0203220e+01   5.0056595e+03
 1.0207900e+01   5.0244873e+03
 1.0212580e+01   4.9994564e+03
 1.0217260e+01   5.0223097e+03
 1.0221940e+01   5.0157274e+03
 1.0226620e+01   5.0194903e+03
 1.0231300e+01   5.0287577e+03
 1.0235980e+01   5.0441078e+03
 1.0240660e+01   5.0503707e+03
 1.0245340e+01   5.0661038e+03
 1.0250020e+01   5.0673793e+03
 1.0254700e+01   5.0963242e+03
 1.0259380e+01   5.1459708e+03
 1.0264060e+01   5.2173272e+03
 1.0268740e+01   5.3496288e+03
 1.0273420e+01   5.4041112e+03
 1.0278100e+01   5.3515561e+03
 1.0282780e+01   5.3316724e+03
 1.0287460e+01   5.4536420e+03
 1.0292140e+01   5.5793858e+03
 1.0296820e+01   5.6704452e+03
 1.0301500e+01   5.7422176e+03
 1.0306180e+01   5.7877171e+03
 1.0310860e+01   5.7027769e+03
 1.0315540e+01   5.6631432e+03
 1.0320220e+01   5.5373867e+03
 1.0324900e+01   5.5858937e+03
 1.0329580e+01   5.7350923e+03
 1.0334260e+01   5.5018622e+03
 1.0338940e+01   5.3092485e+03
 1.0343620e+01   5.2215247e+03
 1.0348300e+01   5.1597258e+03
 1.0352980e+01   5.1041409e+03
 1.0357660e+01   5.0808902e+03
 1.0362340e+01   5.0507799e+03
 1.0367020e+01   5.0371045e+03
 1.0371700e+01   5.0176701e+03
 1.0376380e+01   5.0247420e+03
 1.0381060e+01   5.0062265e+03
 1.0385740e+01   5.0103384e+03
 1.0390420e+01   5.0023003e+03
 1.0395100e+01   5.0046933e+03
 1.0399780e+01   4.9979465e+03
 1.0404460e+01   4.9980830e+03
 1.0409140e+01   4.9996344e+03
 1.0413820e+01   5.0015835e+03
 1.0418500e+01   4.9992675e+03
 1.0423180e+01   4.9940077e+03
 1.0427860e+01   4.9800815e+03
 1.0432540e+01   4.9817673e+03
 1.0437220e+01   4.9843089e+03
 1.0441900e+01   4.9760564e+03
 1.0446580e+01   4.9915818e+03
 1.0451260e+01   4.9726784e+03
 1.0455940e+01   4.9695113e+03
 1.0460620e+01   4.9723066e+03
 1.0465300e+01   4.9777146e+03
 1.0469980e+01   4.9702664e+03
 1.0474660e+01   4.9787515e+03
 1.0479340e+01   4.9818394e+03
 1.0484020e+01   4.9887999e+03
 1.0488700e+01   4.9884647e+03
 1.0493380e+01   4.9900306e+03
 1.0498060e+01   4.9908315e+03
 1.0502740e+01   4.9978942e+03
 1.0507420e+01   5.0011571e+03
 1.0512100e+01   5.0201870e+03
 1.0516780e+01   5.0240460e+03
 1.0521460e+01   5.0308989e+03
 1.0526140e+01   5.0488542e+03
 1.0530820e+01   5.0527969e+03
 1.0535500e+01   5.0732315e+03
 1.0540180e+01   5.0792371e+03
 1.0544860e+01   5.0744999e+03
 1.0549540e+01   5.0810407e+03
 1.0554220e+01   5.0903014e+03
 1.0558900e+01   5.0705309e+03
 1.0563580e+01   5.0544309e+03
 1.0568260e+01   5.0314496e+03
 1.0572940e+01   5.0032598e+03
 1.0577620e+01   5.0017430e+03
 1.0582300e+01   4.9713543e+03
 1.0586980e+01   4.9675684e+03
 1.0591660e+01   4.9500495e+03
 1.0596340e+01   4.9511383e+03
 1.0601020e+01   4.9321846e+03
 1.0605700e+01   4.9185265e+03
 1.0610380e+01   4.9228254e+03
 1.0615060e+01   4.9095812e+03
 1.0619740e+01   4.9104684e+03
 1.0624420e+01   4.9047808e+03
 1.0629100e+01   4.9149006e+03
 1.0633780e+01   4.8955559e+03
 1.0638460e+01   4.9149448e+03
 1.0643140e+01   4.9007274e+03
 1.0647820e+01   4.9069397e+03
 1.0652500e+01   4.9161243e+03
 1.0657180e+01   4.9280539e+03
 1.0661860e+01   4.9347560e+03
 1.0666540e+01   4.9521602e+03
 1.0671220e+01   4.9570935e+03
 1.0675900e+01   4.9793166e+03
 1.0680580e+01   5.0091857e+03
 1.0685260e+01   5.0345830e+03
 1.0689940e+01   5.0828926e+03
 1.0694620e+01   5.1103112e+03
 1.0699300e+01   5.1837136e+03
 1.0703980e+01   5.2146523e+03
 1.0708660e+01   5.2573892e+03
 1.0713340e+01   5.3046314e+03
 1.0718020e+01   5.3074458e+03
 1.0722700e+01   5.3113153e+03
 1.0727380e+01   5.3197653e+03
 1.0732060e+01   5.2822444e+03
 1.0736740e+01   5.2572896e+03
 1.0741420e+01   5.1928773e+03
 1.0746100e+01   5.1495674e+03
 1.0750780e+01   5.0938629e+03
 1.0755460e+01   5.0512311e+03
 1.0760140e+01   5.0001761e+03
 1.0764820e+01   4.9728315e+03
 1.0769500e+01   4.9300886e+03
 1.0774180e+01   4.9118294e+03
 1.0778860e+01   4.8957780e+03
 1.0783540e+01   4.8683257e+03
 1.0788220e+01   4.8647582e+03
 1.0792900e+01   4.8375332e+03
 1.0797580e+01   4.8441133e+03
 1.0802260e+01   4.8246012e+03
 1.0806940e+01   4.8185257e+03
 1.0811620e+01   4.8243644e+03
 1.0816300e+01   4.8207819e+03
 1.0820980e+01   4.8165230e+03
 1.0825660e+01   4.8188964e+03
 1.0830340e+01   4.8171287e+03
 1.0835020e+01   4.8075154e+03
 1.0839700e+01   4.8200978e+03
 1.0844380e+01   4.8067026e+03
 1.0849060e+01   4.8090845e+03
 1.0853740e+01   4.7981963e+03
 1.0858420e+01   4.7904564e+03
 1.0863100e+01   4.7974289e+03
 1.0867780e+01   4.7828617e+03
 1.0872460e+01   4.7800311e+03
 1.0877140e+01   4.7664263e+03
 1.0881820e+01   4.7682181e+03
 1.0886500e+01   4.7590058e+03
 1.0891180e+01   4.7425938e+03
 1.0895860e+01   4.7423877e+03
 1.0900540e+01   4.7402425e+03
 1.0905220e+01   4.7178859e+03
 1.0909900e+01   4.7219870e+03
 1.0914580e+01   4.7143481e+03
 1.0919260e+01   4.7129177e+03
 1.0923940e+01   4.7147170e+03
 1.0928620e+01   4.7048338e+03
 1.0933300e+01   4.7072172e+03
 1.0937980e+01   4.7019606e+03
 1.0942660e+01   4.6947349e+03
 1.0947340e+01   4.7023459e+03
 1.0952020e+01   4.7071144e+03
 1.0956700e+01   4.6927312e+03
 1.0961380e+01   4.7047858e+03
 1.0966060e+01   4.6906557e+03
 1.0970740e+01   4.6968095e+03
 1.0975420e+01   4.6889898e+03
 1.0980100e+01   4.6867517e+03
 1.0984780e+01   4.6798369e+03
 1.0989460e+01   4.6785175e+03
 1.0994140e+01   4.6865789e+03
 1.0998820e+01   4.6915321e+03
 1.1003500e+01   4.6877039e+03
 1.1008180e+01   4.6888114e+03
 1.1012860e+01   4.7050956e+03
 1.1017540e+01   4.6997413e+03
 1.1022220e+01   4.7125727e+03
 1.1026900e+01   4.7033998e+03
 1.1031580e+01   4.7166624e+03
 1.1036260e+01   4.7376495e+03
 1.1040940e+01   4.7445646e+03
 1.1045620e+01   4.7633794e+03
 1.1050300e+01   4.7986853e+03
 1.1054980e+01   4.8132019e+03
 1.1059660e+01   4.8676187e+03
 1.1064340e+01   4.8931182e+03
 1.1069020e+01   4.9653881e+03
 1.1073700e+01   5.0448291e+03
 1.1078380e+01   5.1254055e+03
 1.1083060e+01   5.2344303e+03
 1.1087740e+01   5.3284941e+03
 1.1092420e+01   5.4486286e+03
 1.1097100e+01   5.5730330e+03
 1.1101780e+01   5.6732390e+03
 1.1106460e+01   5.7348328e+03
 1.1111140e+01   5.7842502e+03
 1.1115820e+01   5.7769617e+03
 1.1120500e+01   5.7594021e+03
 1.1125180e+01   5.6757930e+03
 1.1129860e+01   5.5850987e+03
 1.1134540e+01   5.4674952e+03
 1.1139220e+01   5.3341044e+03
 1.1143900e+01   5.2175382e+03
 1.1148580e+01   5.1291183e+03
 1.1153260e+01   5.0208896e+03
 1.1157940e+01   4.9397946e+03
 1.1162620e+01   4.8713269e+03
 1.1167300e+01   4.8093062e+03
 1.1171980e+01   4.7686039e+03
 1.1176660e+01   4.7250443e+03
 1.1181340e+01   4.7123145e+03
 1.1186020e+01   4.6842848e+03
 1.1190700e+01   4.6568975e+03
 1.1195380e+01   4.6497353e+03
 1.1200060e+01   4.6288144e+03
 1.1204740e+01   4.6304187e+03
 1.1209420e+01   4.6141757e+03
 1.1214100e+01   4.6180462e+03
 1.1218780e+01   4.6015960e+03
 1.1223460e+01   4.6128245e+03
 1.1228140e+01   4.6148690e+03
 1.1232820e+01   4.6195962e+03
 1.1237500e+01   4.6102320e+03
 1.1242180e+01   4.6275735e+03
 1.1246860e+01   4.6160230e+03
 1.1251540e+01   4.6220140e+03
 1.1256220e+01   4.6199492e+03
 1.1260900e+01   4.6219907e+03
 1.1265580e+01   4.6429226e+03
 1.1270260e+01   4.6492290e+03
 1.1274940e+01   4.6543624e+03
 1.1279620e+01   4.6600872e+03
 1.1284300e+01   4.6687232e+03
 1.1288980e+01   4.6700759e+03
 1.1293660e+01   4.6711445e+03
 1.1298340e+01   4.6522157e+03
 1.1303020e+01   4.6484940e+03
 1.1307700e+01   4.6202687e+03
 1.1312380e+01   4.6111812e+03
 1.1317060e+01   4.5835957e+03
 1.1321740e+01   4.5567036e+03
 1.1326420e+01   4.5509329e+03
 1.1331100e+01   4.5295279e+03
 1.1335780e+01   4.5127106e+03
 1.1340460e+01   4.5097411e+03
 1.1345140e+01   4.5026816e+03
 1.1349820e+01   4.4826840e+03
 1.1354500e+01   4.4922307e+03
 1.1359180e+01   4.4722591e+03
 1.1363860e+01   4.4721634e+03
 1.1368540e+01   4.4677777e+03
 1.1373220e+01   4.4572825e+03
 1.1377900e+01   4.4635508e+03
 1.1382580e+01   4.4589171e+03
 1.1387260e+01   4.4608262e+03
 1.1391940e+01   4.4591842e+03
 1.1396620e+01   4.4483482e+03
 1.1401300e+01   4.4620129e+03
 1.1405980e+01   4.4539063e+03
 1.1410660e+01   4.4454170e+03
 1.1415340e+01   4.4586177e+03
 1.1420020e+01   4.4503951e+03
 1.1424700e+01   4.4563350e+03
 1.1429380e+01   4.4597407e+03
 1.1434060e+01   4.4463148e+03
 1.1438740e+01   4.4561244e+03
 1.1443420e+01   4.4639448e+03
 1.1448100e+01   4.4679031e+03
 1.1452780e+01   4.4909779e+03
 1.1457460e+01   4.4789277e+03
 1.1462140e+01   4.5004603e+03
 1.1466820e+01   4.5169131e+03
 1.1471500e+01   4.5343087e+03
 1.1476180e+01   4.5679684e+03
 1.1480860e+01   4.5800847e+03
 1.1485540e+01   4.6217703e+03
 1.1490220e+01   4.6571353e+03
 1.1494900e+01   4.7110289e+03
 1.1499580e+01   4.7764151e+03
 1.1504260e+01   4.8287768e+03
 1.1508940e+01   4.8925525e+03
 1.1513620e+01   4.9608840e+03
 1.1518300e+01   4.9971900e+03
 1.1522980e+01   5.0411224e+03
 1.1527660e+01   5.0634059e+03
 1.1532340e+01   5.0378387e+03
 1.1537020e+01   5.0247446e+03
 1.1541700e+01   4.9773381e+03
 1.1546380e+01   4.9119295e+03
 1.1551060e+01   4.8547953e+03
 1.1555740e+01   4.7717548e+03
 1.1560420e+01   4.7365746e+03
 1.1565100e+01   4.6601310e+03
 1.1569780e+01   4.6022112e+03
 1.1574460e+01   4.5721656e+03
 1.1579140e+01   4.5239684e+03
 1.1583820e+01   4.5015780e+03
 1.1588500e+01   4.4740943e+03
 1.1593180e+01   4.4497502e+03
 1.1597860e+01   4.4411030e+03
 1.1602540e+01   4.4226790e+03
 1.1607220e+01   4.4077355e+03
 1.1611900e+01   4.3971855e+03
 1.1616580e+01   4.3961746e+03
 1.1621260e+01   4.3912575e+03
 1.1625940e+01   4.3833891e+03
 1.1630620e+01   4.3675087e+03
 1.1635300e+01   4.3719032e+03
 1.1639980e+01   4.3568883e+03
 1.1644660e+01   4.3486438e+03
 1.1649340e+01   4.3423114e+03
 1.1654020e+01   4.3400574e+03
 1.1658700e+01   4.3313320e+03
 1.1663380e+01   4.3263991e+03
 1.1668060e+01   4.3099881e+03
 1.1672740e+01   4.3296085e+03
 1.1677420e+01   4.3155575e+03
 1.1682100e+01   4.3097188e+03
 1.1686780e+01   4.3070433e+03
 1.1691460e+01   4.2933845e+03
 1.1696140e+01   4.2975251e+03
 1.1700820e+01   4.2949332e+03
 1.1705500e+01   4.2930830e+03
 1.1710180e+01   4.2841462e+03
 1.1714860e+01   4.2882164e+03
 1.1719540e+01   4.2871655e+03
 1.1724220e+01   4.2853120e+03
 1.1728900e+01   4.2686915e+03
 1.1733580e+01   4.2746088e+03
 1.1738260e+01   4.2721711e+03
 1.1742940e+01   4.2741726e+03
 1.1747620e+01   4.2691614e+03
 1.1752300e+01   4.2650271e+03
 1.1756980e+01   4.2709649e+03
 1.1761660e+01   4.2630815e+03
 1.1766340e+01   4.2612911e+03
 1.1771020e+01   4.2665249e+03
 1.1775700e+01   4.2608451e+03
 1.1780380e+01   4.2518457e+03
 1.1785060e+01   4.2567117e+03
 1.1789740e+01   4.2479827e+03
 1.1794420e+01   4.2575220e+03
 1.1799100e+01   4.2441165e+03
 1.1803780e+01   4.2488233e+03
 1.1808460e+01   4.2488654e+03
 1.1813140e+01   4.2424923e+03
 1.1817820e+01   4.2429273e+03
 1.1822500e+01   4.2442406e+03
 1.1827180e+01   4.2417374e+03
 1.1831860e+01   4.2482427e+03
 1.1836540e+01   4.2411853e+03
 1.1841220e+01   4.2451058e+03
 1.1845900e+01   4.2482848e+03
 1.1850580e+01   4.2507976e+03
 1.1855260e+01   4.2729773e+03
 1.1859940e+01   4.2698223e+03
 1.1864620e+01   4.2777702e+03
 1.1869300e+01   4.2959958e+03
 1.1873980e+01   4.3172629e+03
 1.1878660e+01   4.3295621e+03
 1.1883340e+01   4.3393449e+03
 1.1888020e+01   4.3465880e+03
 1.1892700e+01   4.3872998e+03
 1.1897380e+01   4.4254430e+03
 1.1902060e+01   4.4385532e+03
 1.1906740e+01   4.4619384e+03
 1.1911420e+01   4.4376236e+03
 1.1916100e+01   4.4460417e+03
 1.1920780e+01   4.3930393e+03
 1.1925460e+01   4.3746617e+03
 1.1930140e+01   4.3668064e+03
 1.1934820e+01   4.3565694e+03
 1.1939500e+01   4.3679740e+03
 1.1944180e+01   4.3457529e+03
 1.1948860e+01   4.3390990e+03
 1.1953540e+01   4.3533240e+03
 1.1958220e+01   4.3735593e+03
 1.1962900e+01   4.3862323e+03
 1.1967580e+01   4.4346695e+03
 1.1972260e+01   4.4541797e+03
 1.1976940e+01   4.5016358e+03
 1.1981620e+01   4.5341890e+03
 1.1986300e+01   4.5657341e+03
 1.1990980e+01   4.5991600e+03
 1.1995660e+01   4.6107945e+03
 1.2000340e+01   4.6183669e+03
 1.2005020e+01   4.6141102e+03
 1.2009700e+01   4.5922592e+03
 1.2014380e+01   4.5634008e+03
 1.2019060e+01   4.5278854e+03
 1.2023740e+01   4.4779587e+03
 1.2028420e+01   4.4642474e+03
 1.2033100e+01   4.4232356e+03
 1.2037780e+01   4.4001763e+03
 1.2042460e+01   4.3713517e+03
 1.2047140e+01   4.3622897e+03
 1.2051820e+01   4.3597806e+03
 1.2056500e+01   4.3568903e+03
 1.2061180e+01   4.3668951e+03
 1.2065860e+01   4.3849989e+03
 1.2070540e+01   4.4207168e+03
 1.2075220e+01   4.4482499e+03
 1.2079900e+01   4.5046359e+03
 1.2084580e+01   4.5549794e+03
 1.2089260e+01   4.6315730e+03
 1.2093940e+01   4.6891462e+03
 1.2098620e+01   4.7931284e+03
 1.2103300e+01   4.8981635e+03
 1.2107980e+01   5.0077649e+03
 1.2112660e+01   5.1042801e+03
 1.2117340e+01   5.1911627e+03
 1.2122020e+01   5.2581923e+03
 1.2126700e+01   5.3033758e+03
 1.2131380e+01   5.2976463e+03
 1.2136060e+01   5.2806194e+03
 1.2140740e+01   5.2257482e+03
 1.2145420e+01   5.1367036e+03
 1.2150100e+01   5.0292779e+03
 1.2154780e+01   4.9101889e+03
 1.2159460e+01   4.8154250e+03
 1.2164140e+01   4.7048450e+03
 1.2168820e+01   4.6029571e+03
 1.2173500e+01   4.5214843e+03
 1.2178180e+01   4.4387180e+03
 1.2182860e+01   4.3860773e+03
 1.2187540e+01   4.3339552e+03
 1.2192220e+01   4.2851769e+03
 1.2196900e+01   4.2480785e+03
 1.2201580e+01   4.2183350e+03
 1.2206260e+01   4.1869683e+03
 1.2210940e+01   4.1734204e+03
 1.2215620e+01   4.1458222e+03
 1.2220300e+01   4.1344501e+03
 1.2224980e+01   4.1223884e+03
 1.2229660e+01   4.1081798e+03
 1.2234340e+01   4.1097428e+03
 1.2239020e+01   4.0888117e+03
 1.2243700e+01   4.0887080e+03
 1.2248380e+01   4.0731072e+03
 1.2253060e+01   4.0751201e+03
 1.2257740e+01   4.0572741e+03
 1.2262420e+01   4.0634199e+03
 1.2267100e+01   4.0577625e+03
 1.2271780e+01   4.0512377e+03
 1.2276460e+01   4.0488011e+03
 1.2281140e+01   4.0519930e+03
 1.2285820e+01   4.0520045e+03
 1.2290500e+01   4.0411380e+03
 1.2295180e+01   4.0465443e+03
 1.2299860e+01   4.0390326e+03
 1.2304540e+01   4.0394350e+03
 1.2309220e+01   4.0485313e+03
 1.2313900e+01   4.0530961e+03
 1.2318580e+01   4.0590352e+03
 1.2323260e+01   4.0622007e+03
 1.2327940e+01   4.0624414e+03
 1.2332620e+01   4.0733411e+03
 1.2337300e+01   4.0905523e+03
 1.2341980e+01   4.1068476e+03
 1.2346660e+01   4.1343933e+03
 1.2351340e+01   4.1573496e+03
 1.2356020e+01   4.1900509e+03
 1.2360700e+01   4.2228116e+03
 1.2365380e+01   4.2551241e+03
 1.2370060e+01   4.2848478e+03
 1.2374740e+01   4.3232401e+03
 1.2379420e+01   4.3352616e+03
 1.2384100e+01   4.3575417e+03
 1.2388780e+01   4.3710785e+03
 1.2393460e+01   4.3720007e+03
 1.2398140e+01   4.3848146e+03
 1.2402820e+01   4.3641970e+03
 1.2407500e+01   4.3837273e+03
 1.2412180e+01   4.3828312e+03
 1.2416860e+01   4.4103080e+03
 1.2421540e+01   4.4333929e+03
 1.2426220e+01   4.4721083e+03
 1.2430900e+01   4.5141781e+03
 1.2435580e+01   4.5599222e+03
 1.2440260e+01   4.6062529e+03
 1.2444940e+01   4.6485997e+03
 1.2449620e+01   4.6775408e+03
 1.2454300e+01   4.6944918e+03
 1.2458980e+01   4.7050913e+03
 1.2463660e+01   4.6870137e+03
 1.2468340e+01   4.6657072e+03
 1.2473020e+01   4.6422462e+03
 1.2477700e+01   4.6030137e+03
 1.2482380e+01   4.5675143e+03
 1.2487060e+01   4.5096322e+03
 1.2491740e+01   4.4586461e+03
 1.2496420e+01   4.4126567e+03
 1.2501100e+01   4.3577727e+03
 1.2505780e+01   4.3076624e+03
 1.2510460e+01   4.2580992e+03
 1.2515140e+01   4.2139775e+03
 1.2519820e+01   4.1732510e+03
 1.2524500e+01   4.1313036e+03
 1.2529180e+01   4.1015525e+03
 1.2533860e+01   4.0728735e+03
 1.2538540e+01   4.0599122e+03
 1.2543220e+01   4.0372178e+03
 1.2547900e+01   4.0184573e+03
 1.2552580e+01   4.0096095e+03
 1.2557260e+01   3.9878695e+03
 1.2561940e+01   3.9840285e+03
 1.2566620e+01   3.9715277e+03
 1.2571300e+01   3.9719166e+03
 1.2575980e+01   3.9620930e+03
 1.2580660e+01   3.9643679e+03
 1.2585340e+01   3.9538445e+03
 1.2590020e+01   3.9555161e+03
 1.2594700e+01   3.9469913e+03
 1.2599380e+01   3.9488406e+03
 1.2604060e+01   3.9454566e+03
 1.2608740e+01   3.9421132e+03
 1.2613420e+01   3.9452688e+03
 1.2618100e+01   3.9526151e+03
 1.2622780e+01   3.9560916e+03
 1.2627460e+01   3.9617241e+03
 1.2632140e+01   3.9790858e+03
 1.2636820e+01   3.9792161e+03
 1.2641500e+01   3.9873448e+03
 1.2646180e+01   4.0117186e+03
 1.2650860e+01   4.0310593e+03
 1.2655540e+01   4.0578669e+03
 1.2660220e+01   4.0900811e+03
 1.2664900e+01   4.1318026e+03
 1.2669580e+01   4.1843677e+03
 1.2674260e+01   4.2503470e+03
 1.2678940e+01   4.3281250e+03
 1.2683620e+01   4.4147651e+03
 1.2688300e+01   4.5104046e+03
 1.2692980e+01   4.6229959e+03
 1.2697660e+01   4.7469748e+03
