MA2-00001.tif Azm= 0.00
2-Theta Angle (Degrees)
Intensity
       2500
 1.0023400e+00   7.8731575e+03
 1.0070200e+00   7.8724905e+03
 1.0117000e+00   7.8256809e+03
 1.0163800e+00   7.8204790e+03
 1.0210600e+00   7.7346811e+03
 1.0257400e+00   7.7516466e+03
 1.0304199e+00   7.7057237e+03
 1.0351000e+00   7.6947917e+03
 1.0397800e+00   7.6888978e+03
 1.0444601e+00   7.6275792e+03
 1.0491400e+00   7.6052038e+03
 1.0538200e+00   7.6140458e+03
 1.0585001e+00   7.5492829e+03
 1.0631800e+00   7.5448550e+03
 1.0678600e+00   7.4937931e+03
 1.0725400e+00   7.4886494e+03
 1.0772200e+00   7.4691644e+03
 1.0819000e+00   7.4488455e+03
 1.0865800e+00   7.4490510e+03
 1.0912600e+00   7.4423796e+03
 1.0959400e+00   7.4263584e+03
 1.1006200e+00   7.4156667e+03
 1.1052999e+00   7.4079886e+03
 1.1099800e+00   7.3425354e+03
 1.1146600e+00   7.3476899e+03
 1.1193399e+00   7.3649086e+03
 1.1240200e+00   7.3173698e+03
 1.1287000e+00   7.2836679e+03
 1.1333801e+00   7.2776218e+03
 1.1380600e+00   7.2392768e+03
 1.1427400e+00   7.2746774e+03
 1.1474200e+00   7.2187232e+03
 1.1521000e+00   7.2213568e+03
 1.1567800e+00   7.2195321e+03
 1.1614600e+00   7.2172917e+03
 1.1661400e+00   7.1791251e+03
 1.1708200e+00   7.2160260e+03
 1.1755000e+00   7.1910484e+03
 1.1801800e+00   7.1797669e+03
 1.1848600e+00   7.1544305e+03
 1.1895400e+00   7.1696100e+03
 1.1942199e+00   7.1527459e+03
 1.1989000e+00   7.1362076e+03
 1.2035800e+00   7.1496028e+03
 1.2082601e+00   7.1125124e+03
 1.2129400e+00   7.1214863e+03
 1.2176200e+00   7.0991532e+03
 1.2223001e+00   7.0979486e+03
 1.2269800e+00   7.1286112e+03
 1.2316600e+00   7.0919586e+03
 1.2363400e+00   7.1063707e+03
 1.2410200e+00   7.0945493e+03
 1.2457000e+00   7.0896581e+03
 1.2503800e+00   7.0496976e+03
 1.2550600e+00   7.0783330e+03
 1.2597400e+00   7.1254321e+03
 1.2644200e+00   7.0532692e+03
 1.2691000e+00   7.0863360e+03
 1.2737800e+00   7.0698024e+03
 1.2784600e+00   7.0827461e+03
 1.2831399e+00   7.0786665e+03
 1.2878200e+00   7.0626780e+03
 1.2925000e+00   7.0805005e+03
 1.2971801e+00   7.1055302e+03
 1.3018600e+00   7.0368769e+03
 1.3065400e+00   7.1226347e+03
 1.3112200e+00   7.0566468e+03
 1.3159000e+00   7.0824900e+03
 1.3205800e+00   7.1076390e+03
 1.3252600e+00   7.0823453e+03
 1.3299400e+00   7.1008117e+03
 1.3346200e+00   7.0968958e+03
 1.3393000e+00   7.1358339e+03
 1.3439800e+00   7.0986511e+03
 1.3486600e+00   7.1231856e+03
 1.3533400e+00   7.1029346e+03
 1.3580199e+00   7.1438739e+03
 1.3627000e+00   7.1552717e+03
 1.3673800e+00   7.1348227e+03
 1.3720599e+00   7.1383832e+03
 1.3767400e+00   7.1639824e+03
 1.3814200e+00   7.1799649e+03
 1.3861001e+00   7.1780385e+03
 1.3907800e+00   7.1868781e+03
 1.3954600e+00   7.2154270e+03
 1.4001400e+00   7.2134689e+03
 1.4048200e+00   7.2295574e+03
 1.4095000e+00   7.2666369e+03
 1.4141800e+00   7.2816074e+03
 1.4188600e+00   7.2621984e+03
 1.4235400e+00   7.3035724e+03
 1.4282200e+00   7.3515270e+03
 1.4329000e+00   7.3232179e+03
 1.4375800e+00   7.3451008e+03
 1.4422600e+00   7.3933925e+03
 1.4469399e+00   7.3944655e+03
 1.4516200e+00   7.4356361e+03
 1.4563000e+00   7.4564537e+03
 1.4609801e+00   7.4669243e+03
 1.4656600e+00   7.4920140e+03
 1.4703400e+00   7.5575678e+03
 1.4750201e+00   7.5590130e+03
 1.4797000e+00   7.6070621e+03
 1.4843800e+00   7.5980153e+03
 1.4890600e+00   7.6221844e+03
 1.4937400e+00   7.6471962e+03
 1.4984200e+00   7.6473037e+03
 1.5031000e+00   7.6618176e+03
 1.5077800e+00   7.6895328e+03
 1.5124600e+00   7.6912418e+03
 1.5171400e+00   7.6782731e+03
 1.5218199e+00   7.7108965e+03
 1.5265000e+00   7.6824950e+03
 1.5311800e+00   7.7017491e+03
 1.5358599e+00   7.6962812e+03
 1.5405400e+00   7.7100327e+03
 1.5452200e+00   7.6829858e+03
 1.5499001e+00   7.6959101e+03
 1.5545800e+00   7.6732211e+03
 1.5592600e+00   7.6685076e+03
 1.5639400e+00   7.6471190e+03
 1.5686200e+00   7.6361838e+03
 1.5733000e+00   7.6352431e+03
 1.5779800e+00   7.6537789e+03
 1.5826600e+00   7.6327616e+03
 1.5873400e+00   7.6491574e+03
 1.5920200e+00   7.6344970e+03
 1.5967000e+00   7.6645772e+03
 1.6013800e+00   7.6309839e+03
 1.6060600e+00   7.6326479e+03
 1.6107399e+00   7.5960209e+03
 1.6154200e+00   7.6216754e+03
 1.6201000e+00   7.6185236e+03
 1.6247801e+00   7.6090332e+03
 1.6294600e+00   7.6070620e+03
 1.6341400e+00   7.6357435e+03
 1.6388201e+00   7.5964543e+03
 1.6435000e+00   7.6080251e+03
 1.6481800e+00   7.6184991e+03
 1.6528600e+00   7.6176252e+03
 1.6575400e+00   7.6183426e+03
 1.6622200e+00   7.6224586e+03
 1.6669000e+00   7.6133493e+03
 1.6715800e+00   7.6168010e+03
 1.6762600e+00   7.6145136e+03
 1.6809400e+00   7.6360176e+03
 1.6856200e+00   7.6279377e+03
 1.6903000e+00   7.6350890e+03
 1.6949800e+00   7.6480185e+03
 1.6996599e+00   7.6442799e+03
 1.7043400e+00   7.6368251e+03
 1.7090200e+00   7.6733959e+03
 1.7137001e+00   7.6498687e+03
 1.7183800e+00   7.6523819e+03
 1.7230600e+00   7.6776944e+03
 1.7277400e+00   7.6551778e+03
 1.7324200e+00   7.6922299e+03
 1.7371000e+00   7.6734162e+03
 1.7417800e+00   7.6897346e+03
 1.7464600e+00   7.6938282e+03
 1.7511400e+00   7.7067096e+03
 1.7558200e+00   7.6861151e+03
 1.7605000e+00   7.7057008e+03
 1.7651800e+00   7.7022829e+03
 1.7698600e+00   7.7163537e+03
 1.7745399e+00   7.7280637e+03
 1.7792200e+00   7.7421475e+03
 1.7839000e+00   7.7570126e+03
 1.7885799e+00   7.7531187e+03
 1.7932600e+00   7.7675317e+03
 1.7979400e+00   7.7750052e+03
 1.8026201e+00   7.8160676e+03
 1.8073000e+00   7.8275581e+03
 1.8119800e+00   7.8401000e+03
 1.8166600e+00   7.8511798e+03
 1.8213400e+00   7.8656551e+03
 1.8260200e+00   7.9011278e+03
 1.8307000e+00   7.9069817e+03
 1.8353800e+00   7.9294145e+03
 1.8400600e+00   7.9117026e+03
 1.8447400e+00   7.9512352e+03
 1.8494200e+00   7.9596451e+03
 1.8541000e+00   7.9674948e+03
 1.8587800e+00   8.0100096e+03
 1.8634599e+00   8.0392232e+03
 1.8681400e+00   8.0267659e+03
 1.8728200e+00   8.0730328e+03
 1.8775001e+00   8.0867755e+03
 1.8821800e+00   8.1156077e+03
 1.8868600e+00   8.1560114e+03
 1.8915401e+00   8.1644533e+03
 1.8962200e+00   8.1843316e+03
 1.9009000e+00   8.1997988e+03
 1.9055800e+00   8.2359392e+03
 1.9102600e+00   8.2647462e+03
 1.9149400e+00   8.2719229e+03
 1.9196200e+00   8.2815311e+03
 1.9243000e+00   8.3262454e+03
 1.9289800e+00   8.3603101e+03
 1.9336600e+00   8.3764380e+03
 1.9383399e+00   8.3873084e+03
 1.9430200e+00   8.4042167e+03
 1.9477000e+00   8.4216190e+03
 1.9523799e+00   8.4416503e+03
 1.9570600e+00   8.4874862e+03
 1.9617400e+00   8.5054215e+03
 1.9664201e+00   8.5312490e+03
 1.9711000e+00   8.5574757e+03
 1.9757800e+00   8.5623300e+03
 1.9804600e+00   8.5796351e+03
 1.9851400e+00   8.5947550e+03
 1.9898200e+00   8.6317261e+03
 1.9945000e+00   8.6487066e+03
 1.9991800e+00   8.6705222e+03
 2.0038600e+00   8.6932174e+03
 2.0085399e+00   8.7211244e+03
 2.0132201e+00   8.7583284e+03
 2.0179000e+00   8.7501273e+03
 2.0225799e+00   8.7731397e+03
 2.0272601e+00   8.8105556e+03
 2.0319400e+00   8.8052307e+03
 2.0366199e+00   8.8533761e+03
 2.0413001e+00   8.8850182e+03
 2.0459800e+00   8.8605968e+03
 2.0506599e+00   8.8972269e+03
 2.0553401e+00   8.9489829e+03
 2.0600200e+00   8.9501750e+03
 2.0646999e+00   8.9805102e+03
 2.0693800e+00   9.0001792e+03
 2.0740600e+00   9.0281780e+03
 2.0787399e+00   9.0476790e+03
 2.0834200e+00   9.0668320e+03
 2.0881000e+00   9.0798789e+03
 2.0927801e+00   9.1374358e+03
 2.0974600e+00   9.1548638e+03
 2.1021399e+00   9.2398968e+03
 2.1068201e+00   9.2582731e+03
 2.1115000e+00   9.2912309e+03
 2.1161799e+00   9.3250968e+03
 2.1208601e+00   9.3184633e+03
 2.1255400e+00   9.3477422e+03
 2.1302199e+00   9.3898114e+03
 2.1349001e+00   9.3860317e+03
 2.1395800e+00   9.4460293e+03
 2.1442599e+00   9.4683318e+03
 2.1489401e+00   9.5195224e+03
 2.1536200e+00   9.5535832e+03
 2.1582999e+00   9.6078618e+03
 2.1629801e+00   9.6493743e+03
 2.1676600e+00   9.7104881e+03
 2.1723399e+00   9.7919957e+03
 2.1770201e+00   9.8637093e+03
 2.1817000e+00   9.9718159e+03
 2.1863799e+00   1.0069917e+04
 2.1910601e+00   1.0172725e+04
 2.1957400e+00   1.0341054e+04
 2.2004199e+00   1.0558741e+04
 2.2051001e+00   1.0879188e+04
 2.2097800e+00   1.1296679e+04
 2.2144599e+00   1.1876861e+04
 2.2191401e+00   1.2807978e+04
 2.2238200e+00   1.4047263e+04
 2.2284999e+00   1.5866788e+04
 2.2331800e+00   1.8159413e+04
 2.2378600e+00   2.1053233e+04
 2.2425399e+00   2.3760299e+04
 2.2472200e+00   2.6224413e+04
 2.2519000e+00   2.7472427e+04
 2.2565801e+00   2.7483879e+04
 2.2612600e+00   2.6176321e+04
 2.2659400e+00   2.3745181e+04
 2.2706201e+00   2.0917179e+04
 2.2753000e+00   1.8185617e+04
 2.2799799e+00   1.5990101e+04
 2.2846601e+00   1.4217989e+04
 2.2893400e+00   1.3065249e+04
 2.2940199e+00   1.2246409e+04
 2.2987001e+00   1.1695941e+04
 2.3033800e+00   1.1352310e+04
 2.3080599e+00   1.1112283e+04
 2.3127401e+00   1.0941901e+04
 2.3174200e+00   1.0888496e+04
 2.3220999e+00   1.0808827e+04
 2.3267801e+00   1.0752655e+04
 2.3314600e+00   1.0755394e+04
 2.3361399e+00   1.0741473e+04
 2.3408201e+00   1.0726716e+04
 2.3455000e+00   1.0774966e+04
 2.3501799e+00   1.0753757e+04
 2.3548601e+00   1.0799273e+04
 2.3595400e+00   1.0817591e+04
 2.3642199e+00   1.0814654e+04
 2.3689001e+00   1.0838944e+04
 2.3735800e+00   1.0879429e+04
 2.3782599e+00   1.0923641e+04
 2.3829401e+00   1.0923856e+04
 2.3876200e+00   1.0987894e+04
 2.3922999e+00   1.0997292e+04
 2.3969800e+00   1.1019602e+04
 2.4016600e+00   1.1095426e+04
 2.4063399e+00   1.1106040e+04
 2.4110200e+00   1.1115412e+04
 2.4157000e+00   1.1154393e+04
 2.4203801e+00   1.1185856e+04
 2.4250600e+00   1.1224059e+04
 2.4297400e+00   1.1253044e+04
 2.4344201e+00   1.1305933e+04
 2.4391000e+00   1.1339682e+04
 2.4437799e+00   1.1375031e+04
 2.4484601e+00   1.1402503e+04
 2.4531400e+00   1.1440915e+04
 2.4578199e+00   1.1467016e+04
 2.4625001e+00   1.1503259e+04
 2.4671800e+00   1.1541805e+04
 2.4718599e+00   1.1583958e+04
 2.4765401e+00   1.1624409e+04
 2.4812200e+00   1.1690123e+04
 2.4858999e+00   1.1721359e+04
 2.4905801e+00   1.1749339e+04
 2.4952600e+00   1.1791623e+04
 2.4999399e+00   1.1840386e+04
 2.5046201e+00   1.1855582e+04
 2.5093000e+00   1.1900293e+04
 2.5139799e+00   1.1924167e+04
 2.5186601e+00   1.1955538e+04
 2.5233400e+00   1.2013287e+04
 2.5280199e+00   1.2048140e+04
 2.5327001e+00   1.2082423e+04
 2.5373800e+00   1.2094386e+04
 2.5420599e+00   1.2193887e+04
 2.5467401e+00   1.2176974e+04
 2.5514200e+00   1.2209213e+04
 2.5560999e+00   1.2250553e+04
 2.5607800e+00   1.2295861e+04
 2.5654600e+00   1.2335408e+04
 2.5701399e+00   1.2341724e+04
 2.5748200e+00   1.2416209e+04
 2.5795000e+00   1.2408490e+04
 2.5841801e+00   1.2477042e+04
 2.5888600e+00   1.2497831e+04
 2.5935400e+00   1.2499254e+04
 2.5982201e+00   1.2534539e+04
 2.6029000e+00   1.2548819e+04
 2.6075799e+00   1.2579553e+04
 2.6122601e+00   1.2605592e+04
 2.6169400e+00   1.2630655e+04
 2.6216199e+00   1.2636223e+04
 2.6263001e+00   1.2663549e+04
 2.6309800e+00   1.2695301e+04
 2.6356599e+00   1.2716169e+04
 2.6403401e+00   1.2746135e+04
 2.6450200e+00   1.2752552e+04
 2.6496999e+00   1.2770892e+04
 2.6543801e+00   1.2802822e+04
 2.6590600e+00   1.2808078e+04
 2.6637399e+00   1.2808023e+04
 2.6684201e+00   1.2819971e+04
 2.6731000e+00   1.2831905e+04
 2.6777799e+00   1.2859117e+04
 2.6824601e+00   1.2869776e+04
 2.6871400e+00   1.2881261e+04
 2.6918199e+00   1.2886041e+04
 2.6965001e+00   1.2906773e+04
 2.7011800e+00   1.2902891e+04
 2.7058599e+00   1.2925009e+04
 2.7105401e+00   1.2960203e+04
 2.7152200e+00   1.2934176e+04
 2.7198999e+00   1.2940800e+04
 2.7245800e+00   1.2947862e+04
 2.7292600e+00   1.2945553e+04
 2.7339399e+00   1.2956435e+04
 2.7386200e+00   1.2938515e+04
 2.7433000e+00   1.2922596e+04
 2.7479801e+00   1.2932344e+04
 2.7526600e+00   1.2944005e+04
 2.7573400e+00   1.2927210e+04
 2.7620201e+00   1.2899669e+04
 2.7667000e+00   1.2909458e+04
 2.7713799e+00   1.2905157e+04
 2.7760601e+00   1.2906598e+04
 2.7807400e+00   1.2892321e+04
 2.7854199e+00   1.2858942e+04
 2.7901001e+00   1.2870399e+04
 2.7947800e+00   1.2826207e+04
 2.7994599e+00   1.2841394e+04
 2.8041401e+00   1.2797765e+04
 2.8088200e+00   1.2822189e+04
 2.8134999e+00   1.2791888e+04
 2.8181801e+00   1.2796962e+04
 2.8228600e+00   1.2775656e+04
 2.8275399e+00   1.2763124e+04
 2.8322201e+00   1.2739470e+04
 2.8369000e+00   1.2732372e+04
 2.8415799e+00   1.2720833e+04
 2.8462601e+00   1.2681586e+04
 2.8509400e+00   1.2679884e+04
 2.8556199e+00   1.2681710e+04
 2.8603001e+00   1.2647444e+04
 2.8649800e+00   1.2644514e+04
 2.8696599e+00   1.2620457e+04
 2.8743401e+00   1.2596278e+04
 2.8790200e+00   1.2591835e+04
 2.8836999e+00   1.2546393e+04
 2.8883801e+00   1.2552290e+04
 2.8930600e+00   1.2514492e+04
 2.8977399e+00   1.2496029e+04
 2.9024200e+00   1.2505991e+04
 2.9071000e+00   1.2461376e+04
 2.9117801e+00   1.2431260e+04
 2.9164600e+00   1.2438345e+04
 2.9211400e+00   1.2395580e+04
 2.9258201e+00   1.2379898e+04
 2.9305000e+00   1.2348943e+04
 2.9351799e+00   1.2345725e+04
 2.9398601e+00   1.2323203e+04
 2.9445400e+00   1.2330409e+04
 2.9492199e+00   1.2274058e+04
 2.9539001e+00   1.2273547e+04
 2.9585800e+00   1.2246112e+04
 2.9632599e+00   1.2241022e+04
 2.9679401e+00   1.2193867e+04
 2.9726200e+00   1.2171080e+04
 2.9772999e+00   1.2147003e+04
 2.9819801e+00   1.2127837e+04
 2.9866600e+00   1.2084049e+04
 2.9913399e+00   1.2053486e+04
 2.9960201e+00   1.2044927e+04
 3.0007000e+00   1.2011018e+04
 3.0053799e+00   1.1984931e+04
 3.0100601e+00   1.1955164e+04
 3.0147400e+00   1.1935530e+04
 3.0194199e+00   1.1912208e+04
 3.0241001e+00   1.1881578e+04
 3.0287800e+00   1.1887136e+04
 3.0334599e+00   1.1857323e+04
 3.0381401e+00   1.1822770e+04
 3.0428200e+00   1.1783569e+04
 3.0474999e+00   1.1741284e+04
 3.0521801e+00   1.1711764e+04
 3.0568600e+00   1.1680249e+04
 3.0615399e+00   1.1668222e+04
 3.0662200e+00   1.1600198e+04
 3.0709000e+00   1.1592362e+04
 3.0755799e+00   1.1572792e+04
 3.0802600e+00   1.1554472e+04
 3.0849400e+00   1.1508710e+04
 3.0896201e+00   1.1505548e+04
 3.0943000e+00   1.1472177e+04
 3.0989799e+00   1.1430369e+04
 3.1036601e+00   1.1404448e+04
 3.1083400e+00   1.1413112e+04
 3.1130199e+00   1.1367734e+04
 3.1177001e+00   1.1361120e+04
 3.1223800e+00   1.1331916e+04
 3.1270599e+00   1.1315900e+04
 3.1317401e+00   1.1277999e+04
 3.1364200e+00   1.1270123e+04
 3.1410999e+00   1.1265475e+04
 3.1457801e+00   1.1232314e+04
 3.1504600e+00   1.1226491e+04
 3.1551399e+00   1.1189714e+04
 3.1598201e+00   1.1180674e+04
 3.1645000e+00   1.1148903e+04
 3.1691799e+00   1.1134260e+04
 3.1738601e+00   1.1107990e+04
 3.1785400e+00   1.1093086e+04
 3.1832199e+00   1.1075569e+04
 3.1879001e+00   1.1082334e+04
 3.1925800e+00   1.1067217e+04
 3.1972599e+00   1.1062954e+04
 3.2019401e+00   1.1040837e+04
 3.2066200e+00   1.1003874e+04
 3.2112999e+00   1.1016954e+04
 3.2159801e+00   1.0967582e+04
 3.2206600e+00   1.0957911e+04
 3.2253399e+00   1.0937777e+04
 3.2300200e+00   1.0913615e+04
 3.2347000e+00   1.0927207e+04
 3.2393799e+00   1.0899884e+04
 3.2440600e+00   1.0893391e+04
 3.2487400e+00   1.0874056e+04
 3.2534201e+00   1.0848050e+04
 3.2581000e+00   1.0838867e+04
 3.2627800e+00   1.0849966e+04
 3.2674601e+00   1.0808804e+04
 3.2721400e+00   1.0809158e+04
 3.2768199e+00   1.0812868e+04
 3.2815001e+00   1.0772352e+04
 3.2861800e+00   1.0799406e+04
 3.2908599e+00   1.0756890e+04
 3.2955401e+00   1.0775706e+04
 3.3002200e+00   1.0761000e+04
 3.3048999e+00   1.0749464e+04
 3.3095801e+00   1.0744042e+04
 3.3142600e+00   1.0772577e+04
 3.3189399e+00   1.0727091e+04
 3.3236201e+00   1.0749727e+04
 3.3283000e+00   1.0731063e+04
 3.3329799e+00   1.0727769e+04
 3.3376601e+00   1.0717341e+04
 3.3423400e+00   1.0714067e+04
 3.3470199e+00   1.0685485e+04
 3.3517001e+00   1.0716706e+04
 3.3563800e+00   1.0660036e+04
 3.3610599e+00   1.0691464e+04
 3.3657401e+00   1.0687577e+04
 3.3704200e+00   1.0696779e+04
 3.3750999e+00   1.0689227e+04
 3.3797801e+00   1.0702000e+04
 3.3844600e+00   1.0672778e+04
 3.3891399e+00   1.0674505e+04
 3.3938200e+00   1.0681355e+04
 3.3985000e+00   1.0690147e+04
 3.4031799e+00   1.0686166e+04
 3.4078600e+00   1.0670473e+04
 3.4125400e+00   1.0687290e+04
 3.4172201e+00   1.0664839e+04
 3.4219000e+00   1.0678404e+04
 3.4265800e+00   1.0696413e+04
 3.4312601e+00   1.0696284e+04
 3.4359400e+00   1.0705931e+04
 3.4406199e+00   1.0701796e+04
 3.4453001e+00   1.0698963e+04
 3.4499800e+00   1.0714207e+04
 3.4546599e+00   1.0708264e+04
 3.4593401e+00   1.0687318e+04
 3.4640200e+00   1.0720467e+04
 3.4686999e+00   1.0703246e+04
 3.4733801e+00   1.0695533e+04
 3.4780600e+00   1.0709972e+04
 3.4827399e+00   1.0682937e+04
 3.4874201e+00   1.0704920e+04
 3.4921000e+00   1.0703641e+04
 3.4967799e+00   1.0677575e+04
 3.5014601e+00   1.0684791e+04
 3.5061400e+00   1.0697507e+04
 3.5108199e+00   1.0657078e+04
 3.5155001e+00   1.0708516e+04
 3.5201800e+00   1.0690047e+04
 3.5248599e+00   1.0686765e+04
 3.5295401e+00   1.0700293e+04
 3.5342200e+00   1.0682498e+04
 3.5388999e+00   1.0680191e+04
 3.5435801e+00   1.0709414e+04
 3.5482600e+00   1.0664191e+04
 3.5529399e+00   1.0715085e+04
 3.5576200e+00   1.0677451e+04
 3.5623000e+00   1.0676523e+04
 3.5669799e+00   1.0705370e+04
 3.5716600e+00   1.0679082e+04
 3.5763400e+00   1.0680603e+04
 3.5810201e+00   1.0702713e+04
 3.5857000e+00   1.0646525e+04
 3.5903800e+00   1.0656439e+04
 3.5950601e+00   1.0679120e+04
 3.5997400e+00   1.0654066e+04
 3.6044199e+00   1.0677703e+04
 3.6091001e+00   1.0677709e+04
 3.6137800e+00   1.0617122e+04
 3.6184599e+00   1.0705185e+04
 3.6231401e+00   1.0616236e+04
 3.6278200e+00   1.0617052e+04
 3.6324999e+00   1.0658309e+04
 3.6371801e+00   1.0579496e+04
 3.6418600e+00   1.0660492e+04
 3.6465399e+00   1.0624662e+04
 3.6512201e+00   1.0547966e+04
 3.6559000e+00   1.0634706e+04
 3.6605799e+00   1.0591175e+04
 3.6652601e+00   1.0547577e+04
 3.6699400e+00   1.0593763e+04
 3.6746199e+00   1.0475296e+04
 3.6793001e+00   1.0519467e+04
 3.6839800e+00   1.0527283e+04
 3.6886599e+00   1.0428590e+04
 3.6933401e+00   1.0479001e+04
 3.6980200e+00   1.0412504e+04
 3.7026999e+00   1.0380323e+04
 3.7073801e+00   1.0449163e+04
 3.7120600e+00   1.0323551e+04
 3.7167399e+00   1.0326979e+04
 3.7214200e+00   1.0321354e+04
 3.7261000e+00   1.0187699e+04
 3.7307799e+00   1.0215608e+04
 3.7354600e+00   1.0148189e+04
 3.7401400e+00   1.0086282e+04
 3.7448201e+00   1.0102601e+04
 3.7495000e+00   1.0060801e+04
 3.7541800e+00   9.9566211e+03
 3.7588601e+00   1.0026558e+04
 3.7635400e+00   9.8545670e+03
 3.7682199e+00   9.8836574e+03
 3.7729001e+00   9.8492146e+03
 3.7775800e+00   9.7549577e+03
 3.7822599e+00   9.7405761e+03
 3.7869401e+00   9.7816835e+03
 3.7916200e+00   9.5965461e+03
 3.7962999e+00   9.7386546e+03
 3.8009801e+00   9.5737456e+03
 3.8056600e+00   9.5269571e+03
 3.8103399e+00   9.5984374e+03
 3.8150201e+00   9.4788865e+03
 3.8197000e+00   9.4741842e+03
 3.8243799e+00   9.5875835e+03
 3.8290601e+00   9.4426486e+03
 3.8337400e+00   9.4729396e+03
 3.8384199e+00   9.4863638e+03
 3.8431001e+00   9.3357887e+03
 3.8477800e+00   9.4812244e+03
 3.8524599e+00   9.3664157e+03
 3.8571401e+00   9.3650692e+03
 3.8618200e+00   9.3232852e+03
 3.8664999e+00   9.2492589e+03
 3.8711801e+00   9.2322826e+03
 3.8758600e+00   9.1929447e+03
 3.8805399e+00   9.0935146e+03
 3.8852201e+00   9.1423631e+03
 3.8899000e+00   9.0615942e+03
 3.8945799e+00   9.0078719e+03
 3.8992600e+00   9.0311442e+03
 3.9039400e+00   8.9982673e+03
 3.9086201e+00   8.9082156e+03
 3.9133000e+00   8.9534461e+03
 3.9179800e+00   8.8539001e+03
 3.9226601e+00   8.8732397e+03
 3.9273400e+00   8.8526004e+03
 3.9320199e+00   8.7791612e+03
 3.9367001e+00   8.7788548e+03
 3.9413800e+00   8.7625556e+03
 3.9460599e+00   8.6953856e+03
 3.9507401e+00   8.7228020e+03
 3.9554200e+00   8.7061579e+03
 3.9600999e+00   8.6469201e+03
 3.9647801e+00   8.5932053e+03
 3.9694600e+00   8.6016878e+03
 3.9741399e+00   8.5816108e+03
 3.9788201e+00   8.5666982e+03
 3.9835000e+00   8.5454705e+03
 3.9881799e+00   8.5192392e+03
 3.9928601e+00   8.4687593e+03
 3.9975400e+00   8.4351164e+03
 4.0022202e+00   8.4983807e+03
 4.0068998e+00   8.3982732e+03
 4.0115800e+00   8.4286785e+03
 4.0162601e+00   8.3843458e+03
 4.0209398e+00   8.3223108e+03
 4.0256200e+00   8.3074935e+03
 4.0303001e+00   8.3609981e+03
 4.0349798e+00   8.2811227e+03
 4.0396600e+00   8.3646037e+03
 4.0443401e+00   8.2297888e+03
 4.0490198e+00   8.2326048e+03
 4.0537000e+00   8.2626624e+03
 4.0583801e+00   8.1983588e+03
 4.0630598e+00   8.2070612e+03
 4.0677400e+00   8.2552197e+03
 4.0724201e+00   8.1414691e+03
 4.0770998e+00   8.1915223e+03
 4.0817800e+00   8.1398377e+03
 4.0864601e+00   8.0934071e+03
 4.0911398e+00   8.1932745e+03
 4.0958200e+00   8.0559387e+03
 4.1005001e+00   8.1001916e+03
 4.1051798e+00   8.0581486e+03
 4.1098599e+00   8.0297531e+03
 4.1145401e+00   8.0550854e+03
 4.1192198e+00   8.0043569e+03
 4.1238999e+00   7.9201028e+03
 4.1285801e+00   8.0537978e+03
 4.1332598e+00   7.9290966e+03
 4.1379399e+00   7.9915926e+03
 4.1426201e+00   7.9341079e+03
 4.1472998e+00   7.8593462e+03
 4.1519799e+00   7.9024313e+03
 4.1566601e+00   7.8735968e+03
 4.1613402e+00   7.7923879e+03
 4.1660199e+00   7.8961969e+03
 4.1707001e+00   7.7848313e+03
 4.1753802e+00   7.7737953e+03
 4.1800599e+00   7.7979029e+03
 4.1847401e+00   7.7369060e+03
 4.1894202e+00   7.8030911e+03
 4.1940999e+00   7.7677654e+03
 4.1987801e+00   7.7021309e+03
 4.2034602e+00   7.8139050e+03
 4.2081399e+00   7.7540558e+03
 4.2128201e+00   7.7178099e+03
 4.2175002e+00   7.8585672e+03
 4.2221799e+00   7.7096994e+03
 4.2268600e+00   7.7170045e+03
 4.2315402e+00   7.7369238e+03
 4.2362199e+00   7.6192848e+03
 4.2409000e+00   7.7054365e+03
 4.2455802e+00   7.7128377e+03
 4.2502599e+00   7.6375796e+03
 4.2549400e+00   7.7457008e+03
 4.2596202e+00   7.6890809e+03
 4.2642999e+00   7.6935444e+03
 4.2689800e+00   7.7249644e+03
 4.2736602e+00   7.6717728e+03
 4.2783399e+00   7.6614498e+03
 4.2830200e+00   7.6925961e+03
 4.2877002e+00   7.6026504e+03
 4.2923799e+00   7.6912635e+03
 4.2970600e+00   7.6549096e+03
 4.3017402e+00   7.6162732e+03
 4.3064198e+00   7.6528084e+03
 4.3111000e+00   7.6309752e+03
 4.3157802e+00   7.6341412e+03
 4.3204598e+00   7.6419015e+03
 4.3251400e+00   7.6061284e+03
 4.3298202e+00   7.6416150e+03
 4.3344998e+00   7.5792612e+03
 4.3391800e+00   7.5792374e+03
 4.3438601e+00   7.6394138e+03
 4.3485398e+00   7.6067016e+03
 4.3532200e+00   7.5937173e+03
 4.3579001e+00   7.6401305e+03
 4.3625798e+00   7.5227598e+03
 4.3672600e+00   7.6138691e+03
 4.3719401e+00   7.5527484e+03
 4.3766198e+00   7.5682287e+03
 4.3813000e+00   7.5805066e+03
 4.3859801e+00   7.5589411e+03
 4.3906598e+00   7.5278649e+03
 4.3953400e+00   7.5818525e+03
 4.4000201e+00   7.5199949e+03
 4.4046998e+00   7.5942866e+03
 4.4093800e+00   7.5267455e+03
 4.4140601e+00   7.5283815e+03
 4.4187398e+00   7.5324556e+03
 4.4234200e+00   7.5198263e+03
 4.4281001e+00   7.4633535e+03
 4.4327798e+00   7.5550638e+03
 4.4374599e+00   7.4876885e+03
 4.4421401e+00   7.5229998e+03
 4.4468198e+00   7.5397579e+03
 4.4514999e+00   7.5221121e+03
 4.4561801e+00   7.5905988e+03
 4.4608598e+00   7.6413850e+03
 4.4655399e+00   7.6989207e+03
 4.4702201e+00   7.8671053e+03
 4.4748998e+00   8.0460158e+03
 4.4795799e+00   8.3057975e+03
 4.4842601e+00   8.7012109e+03
 4.4889398e+00   9.1197714e+03
 4.4936199e+00   9.6458230e+03
 4.4983001e+00   1.0144761e+04
 4.5029802e+00   1.0514048e+04
 4.5076599e+00   1.0727407e+04
 4.5123401e+00   1.0688048e+04
 4.5170202e+00   1.0362719e+04
 4.5216999e+00   9.9535076e+03
 4.5263801e+00   9.4047900e+03
 4.5310602e+00   8.8454859e+03
 4.5357399e+00   8.3933325e+03
 4.5404201e+00   7.9741684e+03
 4.5451002e+00   7.6781622e+03
 4.5497799e+00   7.4597884e+03
 4.5544600e+00   7.2905790e+03
 4.5591402e+00   7.1753547e+03
 4.5638199e+00   7.0843603e+03
 4.5685000e+00   6.9919840e+03
 4.5731802e+00   6.9846264e+03
 4.5778599e+00   6.9363620e+03
 4.5825400e+00   6.8989913e+03
 4.5872202e+00   6.8912567e+03
 4.5918999e+00   6.8272838e+03
 4.5965800e+00   6.8081247e+03
 4.6012602e+00   6.7704413e+03
 4.6059399e+00   6.7749542e+03
 4.6106200e+00   6.7748896e+03
 4.6153002e+00   6.7515435e+03
 4.6199799e+00   6.7110957e+03
 4.6246600e+00   6.7083899e+03
 4.6293402e+00   6.6848140e+03
 4.6340199e+00   6.6773184e+03
 4.6387000e+00   6.6909498e+03
 4.6433802e+00   6.6626415e+03
 4.6480598e+00   6.6751081e+03
 4.6527400e+00   6.6456725e+03
 4.6574202e+00   6.6337075e+03
 4.6620998e+00   6.7030790e+03
 4.6667800e+00   6.6932023e+03
 4.6714602e+00   6.7141899e+03
 4.6761398e+00   6.7730503e+03
 4.6808200e+00   6.8771977e+03
 4.6855001e+00   7.0114362e+03
 4.6901798e+00   7.2420431e+03
 4.6948600e+00   7.5401694e+03
 4.6995401e+00   7.9837084e+03
 4.7042198e+00   8.4952864e+03
 4.7089000e+00   9.0565710e+03
 4.7135801e+00   9.6430996e+03
 4.7182598e+00   1.0053386e+04
 4.7229400e+00   1.0284097e+04
 4.7276201e+00   1.0177210e+04
 4.7322998e+00   9.8658564e+03
 4.7369800e+00   9.3404994e+03
 4.7416601e+00   8.7540959e+03
 4.7463398e+00   8.1924578e+03
 4.7510200e+00   7.7277236e+03
 4.7557001e+00   7.3347374e+03
 4.7603798e+00   7.0482241e+03
 4.7650599e+00   6.8627135e+03
 4.7697401e+00   6.7162532e+03
 4.7744198e+00   6.6251551e+03
 4.7790999e+00   6.5382177e+03
 4.7837801e+00   6.4829595e+03
 4.7884598e+00   6.4505814e+03
 4.7931399e+00   6.4205527e+03
 4.7978201e+00   6.4054691e+03
 4.8024998e+00   6.3950178e+03
 4.8071799e+00   6.3816221e+03
 4.8118601e+00   6.3834954e+03
 4.8165398e+00   6.3542484e+03
 4.8212199e+00   6.3995443e+03
 4.8259001e+00   6.4009512e+03
 4.8305802e+00   6.4052001e+03
 4.8352599e+00   6.4448956e+03
 4.8399401e+00   6.5119015e+03
 4.8446202e+00   6.5950889e+03
 4.8492999e+00   6.7127229e+03
 4.8539801e+00   6.8860138e+03
 4.8586602e+00   7.1604821e+03
 4.8633399e+00   7.5211111e+03
 4.8680201e+00   8.0653268e+03
 4.8727002e+00   8.7684594e+03
 4.8773799e+00   9.6770689e+03
 4.8820601e+00   1.0736643e+04
 4.8867402e+00   1.1795518e+04
 4.8914199e+00   1.2719827e+04
 4.8961000e+00   1.3350639e+04
 4.9007802e+00   1.3438384e+04
 4.9054599e+00   1.3073011e+04
 4.9101400e+00   1.2322851e+04
 4.9148202e+00   1.1289346e+04
 4.9194999e+00   1.0219131e+04
 4.9241800e+00   9.1899080e+03
 4.9288602e+00   8.3923450e+03
 4.9335399e+00   7.7525287e+03
 4.9382200e+00   7.2784971e+03
 4.9429002e+00   6.9151406e+03
 4.9475799e+00   6.7165319e+03
 4.9522600e+00   6.5237558e+03
 4.9569402e+00   6.4262711e+03
 4.9616199e+00   6.3251586e+03
 4.9663000e+00   6.3003264e+03
 4.9709802e+00   6.2192353e+03
 4.9756598e+00   6.1902666e+03
 4.9803400e+00   6.1674525e+03
 4.9850202e+00   6.1565673e+03
 4.9896998e+00   6.1218643e+03
 4.9943800e+00   6.1180311e+03
 4.9990602e+00   6.1020885e+03
 5.0037398e+00   6.0937418e+03
 5.0084200e+00   6.0802078e+03
 5.0131001e+00   6.0580941e+03
 5.0177798e+00   6.0638446e+03
 5.0224600e+00   6.0603435e+03
 5.0271401e+00   6.0388476e+03
 5.0318198e+00   6.0413774e+03
 5.0365000e+00   6.0642135e+03
 5.0411801e+00   6.0330877e+03
 5.0458598e+00   6.0584805e+03
 5.0505400e+00   6.0581164e+03
 5.0552201e+00   6.0926756e+03
 5.0598998e+00   6.0977853e+03
 5.0645800e+00   6.1376079e+03
 5.0692601e+00   6.1848175e+03
 5.0739398e+00   6.2498286e+03
 5.0786200e+00   6.3641543e+03
 5.0833001e+00   6.5123343e+03
 5.0879798e+00   6.6366570e+03
 5.0926600e+00   7.0303248e+03
 5.0973401e+00   7.2916663e+03
 5.1020198e+00   7.7532896e+03
 5.1066999e+00   8.9223690e+03
 5.1113801e+00   9.8236975e+03
 5.1160598e+00   1.1945229e+04
 5.1207399e+00   1.5966058e+04
 5.1254201e+00   1.9555698e+04
 5.1300998e+00   2.8620399e+04
 5.1347799e+00   3.7387307e+04
 5.1394601e+00   4.2032648e+04
 5.1441398e+00   5.0168760e+04
 5.1488199e+00   4.6721418e+04
 5.1535001e+00   4.1348644e+04
 5.1581802e+00   3.6112285e+04
 5.1628599e+00   2.6093222e+04
 5.1675401e+00   1.9354892e+04
 5.1722202e+00   1.4743309e+04
 5.1768999e+00   1.0816455e+04
 5.1815801e+00   9.2756411e+03
 5.1862602e+00   7.8932712e+03
 5.1909399e+00   7.1498525e+03
 5.1956201e+00   6.9109489e+03
 5.2003002e+00   6.5600069e+03
 5.2049799e+00   6.3762475e+03
 5.2096601e+00   6.2930994e+03
 5.2143402e+00   6.1785784e+03
 5.2190199e+00   6.1392659e+03
 5.2237000e+00   6.0569541e+03
 5.2283802e+00   5.9996979e+03
 5.2330599e+00   5.9712517e+03
 5.2377400e+00   5.9422318e+03
 5.2424202e+00   5.8870282e+03
 5.2470999e+00   5.8685356e+03
 5.2517800e+00   5.8464973e+03
 5.2564602e+00   5.8294106e+03
 5.2611399e+00   5.8285804e+03
 5.2658200e+00   5.8037801e+03
 5.2705002e+00   5.8091464e+03
 5.2751799e+00   5.7653462e+03
 5.2798600e+00   5.7698055e+03
 5.2845402e+00   5.7658893e+03
 5.2892199e+00   5.7340641e+03
 5.2939000e+00   5.7616071e+03
 5.2985802e+00   5.7507474e+03
 5.3032598e+00   5.7326079e+03
 5.3079400e+00   5.7300818e+03
 5.3126202e+00   5.7208051e+03
 5.3172998e+00   5.7434178e+03
 5.3219800e+00   5.7145753e+03
 5.3266602e+00   5.7052442e+03
 5.3313398e+00   5.6989824e+03
 5.3360200e+00   5.7000949e+03
 5.3407001e+00   5.6880755e+03
 5.3453798e+00   5.6774672e+03
 5.3500600e+00   5.6786485e+03
 5.3547401e+00   5.6924156e+03
 5.3594198e+00   5.6796267e+03
 5.3641000e+00   5.6814627e+03
 5.3687801e+00   5.6872931e+03
 5.3734598e+00   5.6834740e+03
 5.3781400e+00   5.6883665e+03
 5.3828201e+00   5.6830664e+03
 5.3874998e+00   5.6927516e+03
 5.3921800e+00   5.7016928e+03
 5.3968601e+00   5.7022980e+03
 5.4015398e+00   5.7012811e+03
 5.4062200e+00   5.7437320e+03
 5.4109001e+00   5.7266223e+03
 5.4155798e+00   5.7365704e+03
 5.4202600e+00   5.7709569e+03
 5.4249401e+00   5.7699196e+03
 5.4296198e+00   5.7955701e+03
 5.4342999e+00   5.8147634e+03
 5.4389801e+00   5.8264636e+03
 5.4436598e+00   5.8753591e+03
 5.4483399e+00   5.8871781e+03
 5.4530201e+00   5.9592620e+03
 5.4576998e+00   6.0141561e+03
 5.4623799e+00   6.0700749e+03
 5.4670601e+00   6.1437796e+03
 5.4717398e+00   6.2567833e+03
 5.4764199e+00   6.3767943e+03
 5.4811001e+00   6.5866272e+03
 5.4857798e+00   6.7990892e+03
 5.4904599e+00   7.1035117e+03
 5.4951401e+00   7.5037233e+03
 5.4998202e+00   8.0345262e+03
 5.5044999e+00   8.8379136e+03
 5.5091801e+00   9.8960173e+03
 5.5138602e+00   1.1353566e+04
 5.5185399e+00   1.3296869e+04
 5.5232201e+00   1.5807967e+04
 5.5279002e+00   1.8779303e+04
 5.5325799e+00   2.2131996e+04
 5.5372601e+00   2.5332713e+04
 5.5419402e+00   2.8098326e+04
 5.5466199e+00   2.9689555e+04
 5.5513000e+00   2.9869858e+04
 5.5559802e+00   2.8727287e+04
 5.5606599e+00   2.6296434e+04
 5.5653400e+00   2.3207206e+04
 5.5700202e+00   1.9932071e+04
 5.5746999e+00   1.6865503e+04
 5.5793800e+00   1.4208774e+04
 5.5840602e+00   1.2093255e+04
 5.5887399e+00   1.0494610e+04
 5.5934200e+00   9.3087206e+03
 5.5981002e+00   8.4308056e+03
 5.6027799e+00   7.7815895e+03
 5.6074600e+00   7.3029141e+03
 5.6121402e+00   6.9662006e+03
 5.6168199e+00   6.6939000e+03
 5.6215000e+00   6.4863201e+03
 5.6261802e+00   6.3296752e+03
 5.6308599e+00   6.2061747e+03
 5.6355400e+00   6.1066073e+03
 5.6402202e+00   6.0353962e+03
 5.6448998e+00   5.9631251e+03
 5.6495800e+00   5.9172584e+03
 5.6542602e+00   5.8648903e+03
 5.6589398e+00   5.8476498e+03
 5.6636200e+00   5.8133873e+03
 5.6683002e+00   5.7960748e+03
 5.6729798e+00   5.7583131e+03
 5.6776600e+00   5.7439060e+03
 5.6823401e+00   5.7156653e+03
 5.6870198e+00   5.7165351e+03
 5.6917000e+00   5.6738029e+03
 5.6963801e+00   5.6819805e+03
 5.7010598e+00   5.6774000e+03
 5.7057400e+00   5.6564163e+03
 5.7104201e+00   5.6674167e+03
 5.7150998e+00   5.6450512e+03
 5.7197800e+00   5.6513079e+03
 5.7244601e+00   5.6511762e+03
 5.7291398e+00   5.6566524e+03
 5.7338200e+00   5.6476943e+03
 5.7385001e+00   5.6719610e+03
 5.7431798e+00   5.6649061e+03
 5.7478600e+00   5.6833663e+03
 5.7525401e+00   5.6794423e+03
 5.7572198e+00   5.6967367e+03
 5.7618999e+00   5.6905664e+03
 5.7665801e+00   5.6885907e+03
 5.7712598e+00   5.6800469e+03
 5.7759399e+00   5.6813289e+03
 5.7806201e+00   5.6806496e+03
 5.7852998e+00   5.6695822e+03
 5.7899799e+00   5.6550857e+03
 5.7946601e+00   5.6528318e+03
 5.7993398e+00   5.6552320e+03
 5.8040199e+00   5.6446008e+03
 5.8087001e+00   5.6490112e+03
 5.8133798e+00   5.6290293e+03
 5.8180599e+00   5.6237812e+03
 5.8227401e+00   5.6076296e+03
 5.8274202e+00   5.6151273e+03
 5.8320999e+00   5.5908417e+03
 5.8367801e+00   5.6147739e+03
 5.8414602e+00   5.6061060e+03
 5.8461399e+00   5.6145766e+03
 5.8508201e+00   5.6046558e+03
 5.8555002e+00   5.6192979e+03
 5.8601799e+00   5.6268425e+03
 5.8648601e+00   5.6527346e+03
 5.8695402e+00   5.6521199e+03
 5.8742199e+00   5.6705547e+03
 5.8789001e+00   5.6839400e+03
 5.8835802e+00   5.7204702e+03
 5.8882599e+00   5.7617551e+03
 5.8929400e+00   5.7781168e+03
 5.8976202e+00   5.8909062e+03
 5.9022999e+00   6.0093005e+03
 5.9069800e+00   6.2318801e+03
 5.9116602e+00   6.5462701e+03
 5.9163399e+00   6.9829053e+03
 5.9210200e+00   7.6938838e+03
 5.9257002e+00   8.7536172e+03
 5.9303799e+00   1.0143036e+04
 5.9350600e+00   1.1446870e+04
 5.9397402e+00   1.2153656e+04
 5.9444199e+00   1.2264641e+04
 5.9491000e+00   1.1907391e+04
 5.9537802e+00   1.0945850e+04
 5.9584599e+00   9.7781804e+03
 5.9631400e+00   8.5345735e+03
 5.9678202e+00   7.7203703e+03
 5.9724998e+00   7.0911285e+03
 5.9771800e+00   6.7851798e+03
 5.9818602e+00   6.6045833e+03
 5.9865398e+00   6.5218255e+03
 5.9912200e+00   6.4297315e+03
 5.9959002e+00   6.3550333e+03
 6.0005798e+00   6.2883263e+03
 6.0052600e+00   6.1801660e+03
 6.0099401e+00   6.1018631e+03
 6.0146198e+00   5.9952692e+03
 6.0193000e+00   5.9184057e+03
 6.0239801e+00   5.8847386e+03
 6.0286598e+00   5.8046513e+03
 6.0333400e+00   5.7820627e+03
 6.0380201e+00   5.7648219e+03
 6.0426998e+00   5.7363670e+03
 6.0473800e+00   5.7198560e+03
 6.0520601e+00   5.7131839e+03
 6.0567398e+00   5.6747713e+03
 6.0614200e+00   5.7178324e+03
 6.0661001e+00   5.6815358e+03
 6.0707798e+00   5.6734315e+03
 6.0754600e+00   5.6925502e+03
 6.0801401e+00   5.6858791e+03
 6.0848198e+00   5.6554208e+03
 6.0895000e+00   5.7007841e+03
 6.0941801e+00   5.6648704e+03
 6.0988598e+00   5.6792459e+03
 6.1035399e+00   5.6736586e+03
 6.1082201e+00   5.6561012e+03
 6.1128998e+00   5.6808144e+03
 6.1175799e+00   5.6713870e+03
 6.1222601e+00   5.6779598e+03
 6.1269398e+00   5.6671679e+03
 6.1316199e+00   5.6800951e+03
 6.1363001e+00   5.6754004e+03
 6.1409798e+00   5.6872508e+03
 6.1456599e+00   5.6624113e+03
 6.1503401e+00   5.7014003e+03
 6.1550202e+00   5.6772986e+03
 6.1596999e+00   5.6902096e+03
 6.1643801e+00   5.6928785e+03
 6.1690602e+00   5.7045800e+03
 6.1737399e+00   5.6981486e+03
 6.1784201e+00   5.7143329e+03
 6.1831002e+00   5.6963128e+03
 6.1877799e+00   5.7331676e+03
 6.1924601e+00   5.7071362e+03
 6.1971402e+00   5.7095646e+03
 6.2018199e+00   5.7325345e+03
 6.2065001e+00   5.7269566e+03
 6.2111802e+00   5.7321387e+03
 6.2158599e+00   5.7521899e+03
 6.2205400e+00   5.7282346e+03
 6.2252202e+00   5.7430082e+03
 6.2298999e+00   5.7595261e+03
 6.2345800e+00   5.7219297e+03
 6.2392602e+00   5.7640886e+03
 6.2439399e+00   5.7548884e+03
 6.2486200e+00   5.7581720e+03
 6.2533002e+00   5.7566202e+03
 6.2579799e+00   5.7535055e+03
 6.2626600e+00   5.7672073e+03
 6.2673402e+00   5.7755933e+03
 6.2720199e+00   5.7588477e+03
 6.2767000e+00   5.7957831e+03
 6.2813802e+00   5.7851667e+03
 6.2860599e+00   5.7831411e+03
 6.2907400e+00   5.7851172e+03
 6.2954202e+00   5.7959153e+03
 6.3000998e+00   5.7900268e+03
 6.3047800e+00   5.8143044e+03
 6.3094602e+00   5.7931008e+03
 6.3141398e+00   5.8140848e+03
 6.3188200e+00   5.8167742e+03
 6.3235002e+00   5.8008975e+03
 6.3281798e+00   5.8358076e+03
 6.3328600e+00   5.8282771e+03
 6.3375401e+00   5.8424753e+03
 6.3422198e+00   5.8421004e+03
 6.3469000e+00   5.8294735e+03
 6.3515801e+00   5.8452670e+03
 6.3562598e+00   5.8699817e+03
 6.3609400e+00   5.8414783e+03
 6.3656201e+00   5.8704775e+03
 6.3702998e+00   5.8444164e+03
 6.3749800e+00   5.8491636e+03
 6.3796601e+00   5.8388161e+03
 6.3843398e+00   5.8664091e+03
 6.3890200e+00   5.8464376e+03
 6.3937001e+00   5.8735257e+03
 6.3983798e+00   5.8549074e+03
 6.4030600e+00   5.8825716e+03
 6.4077401e+00   5.8805851e+03
 6.4124198e+00   5.8565379e+03
 6.4171000e+00   5.9073520e+03
 6.4217801e+00   5.8754997e+03
 6.4264598e+00   5.8824165e+03
 6.4311399e+00   5.9025693e+03
 6.4358201e+00   5.8992074e+03
 6.4404998e+00   5.9146182e+03
 6.4451799e+00   5.9301623e+03
 6.4498601e+00   5.9032860e+03
 6.4545398e+00   5.9067681e+03
 6.4592199e+00   5.9024482e+03
 6.4639001e+00   5.9143314e+03
 6.4685798e+00   5.9302436e+03
 6.4732599e+00   5.9139053e+03
 6.4779401e+00   5.9359992e+03
 6.4826198e+00   5.9176451e+03
 6.4872999e+00   5.9298620e+03
 6.4919801e+00   5.9371115e+03
 6.4966602e+00   5.9499239e+03
 6.5013399e+00   5.9256629e+03
 6.5060201e+00   5.9709523e+03
 6.5107002e+00   5.9493943e+03
 6.5153799e+00   5.9777896e+03
 6.5200601e+00   5.9844065e+03
 6.5247402e+00   5.9836118e+03
 6.5294199e+00   5.9682578e+03
 6.5341001e+00   5.9832727e+03
 6.5387802e+00   5.9782714e+03
 6.5434599e+00   5.9964234e+03
 6.5481400e+00   6.0077607e+03
 6.5528202e+00   6.0244177e+03
 6.5574999e+00   6.0267204e+03
 6.5621800e+00   6.0083823e+03
 6.5668602e+00   6.0393101e+03
 6.5715399e+00   6.0431060e+03
 6.5762200e+00   6.0379856e+03
 6.5809002e+00   6.0557459e+03
 6.5855799e+00   6.0616606e+03
 6.5902600e+00   6.0346485e+03
 6.5949402e+00   6.0952903e+03
 6.5996199e+00   6.0533116e+03
 6.6043000e+00   6.1059932e+03
 6.6089802e+00   6.0919560e+03
 6.6136599e+00   6.0955081e+03
 6.6183400e+00   6.1251183e+03
 6.6230202e+00   6.1333513e+03
 6.6276999e+00   6.1227247e+03
 6.6323800e+00   6.1477003e+03
 6.6370602e+00   6.1542528e+03
 6.6417398e+00   6.1430742e+03
 6.6464200e+00   6.2074860e+03
 6.6511002e+00   6.1667493e+03
 6.6557798e+00   6.2111021e+03
 6.6604600e+00   6.2149375e+03
 6.6651402e+00   6.2390565e+03
 6.6698198e+00   6.2269265e+03
 6.6745000e+00   6.2650544e+03
 6.6791801e+00   6.2504240e+03
 6.6838598e+00   6.3093286e+03
 6.6885400e+00   6.2642991e+03
 6.6932201e+00   6.3295032e+03
 6.6978998e+00   6.3061397e+03
 6.7025800e+00   6.3302543e+03
 6.7072601e+00   6.3353009e+03
 6.7119398e+00   6.3617345e+03
 6.7166200e+00   6.3548596e+03
 6.7213001e+00   6.3728358e+03
 6.7259798e+00   6.3951181e+03
 6.7306600e+00   6.3839386e+03
 6.7353401e+00   6.4481030e+03
 6.7400198e+00   6.4268097e+03
 6.7447000e+00   6.4759506e+03
 6.7493801e+00   6.4402976e+03
 6.7540598e+00   6.4801193e+03
 6.7587399e+00   6.4896468e+03
 6.7634201e+00   6.5241223e+03
 6.7680998e+00   6.4869150e+03
 6.7727799e+00   6.5714892e+03
 6.7774601e+00   6.4882305e+03
 6.7821398e+00   6.5387911e+03
 6.7868199e+00   6.5237071e+03
 6.7915001e+00   6.5471541e+03
 6.7961798e+00   6.5348117e+03
 6.8008599e+00   6.5271501e+03
 6.8055401e+00   6.5220949e+03
 6.8102198e+00   6.5151369e+03
 6.8148999e+00   6.5242258e+03
 6.8195801e+00   6.5309317e+03
 6.8242602e+00   6.5592959e+03
 6.8289399e+00   6.5236345e+03
 6.8336201e+00   6.5835737e+03
 6.8383002e+00   6.5464397e+03
 6.8429799e+00   6.5609995e+03
 6.8476601e+00   6.5973423e+03
 6.8523402e+00   6.5675423e+03
 6.8570199e+00   6.5583431e+03
 6.8617001e+00   6.5763369e+03
 6.8663802e+00   6.5792557e+03
 6.8710599e+00   6.6086881e+03
 6.8757401e+00   6.5922392e+03
 6.8804202e+00   6.6098803e+03
 6.8850999e+00   6.6141687e+03
 6.8897800e+00   6.6234349e+03
 6.8944602e+00   6.6109034e+03
 6.8991399e+00   6.6842352e+03
 6.9038200e+00   6.6544726e+03
 6.9085002e+00   6.7008315e+03
 6.9131799e+00   6.7057229e+03
 6.9178600e+00   6.7663809e+03
 6.9225402e+00   6.7409936e+03
 6.9272199e+00   6.7873726e+03
 6.9319000e+00   6.7601782e+03
 6.9365802e+00   6.8222791e+03
 6.9412599e+00   6.7504613e+03
 6.9459400e+00   6.8146999e+03
 6.9506202e+00   6.8348633e+03
 6.9552999e+00   6.8790487e+03
 6.9599800e+00   6.9004148e+03
 6.9646602e+00   6.9586619e+03
 6.9693398e+00   6.9504150e+03
 6.9740200e+00   7.0628394e+03
 6.9787002e+00   7.1081037e+03
 6.9833798e+00   7.1781328e+03
 6.9880600e+00   7.3136877e+03
 6.9927402e+00   7.4301132e+03
 6.9974198e+00   7.6119787e+03
 7.0021000e+00   7.7904806e+03
 7.0067801e+00   8.1180975e+03
 7.0114598e+00   8.4125427e+03
 7.0161400e+00   8.7715113e+03
 7.0208201e+00   9.0441767e+03
 7.0254998e+00   9.3683287e+03
 7.0301800e+00   9.4691256e+03
 7.0348601e+00   9.5764470e+03
 7.0395398e+00   9.4449232e+03
 7.0442200e+00   9.2967447e+03
 7.0489001e+00   8.9840061e+03
 7.0535798e+00   8.6867572e+03
 7.0582600e+00   8.3551945e+03
 7.0629401e+00   8.1530310e+03
 7.0676198e+00   7.8262181e+03
 7.0723000e+00   7.6652023e+03
 7.0769801e+00   7.4282046e+03
 7.0816598e+00   7.2674968e+03
 7.0863400e+00   7.1553884e+03
 7.0910201e+00   6.9987179e+03
 7.0956998e+00   6.8981236e+03
 7.1003799e+00   6.8453777e+03
 7.1050601e+00   6.8025892e+03
 7.1097398e+00   6.7171343e+03
 7.1144199e+00   6.7148710e+03
 7.1191001e+00   6.6625610e+03
 7.1237798e+00   6.6761038e+03
 7.1284599e+00   6.6379471e+03
 7.1331401e+00   6.6245904e+03
 7.1378198e+00   6.5734560e+03
 7.1424999e+00   6.6034946e+03
 7.1471801e+00   6.5630721e+03
 7.1518602e+00   6.5672129e+03
 7.1565399e+00   6.5369806e+03
 7.1612201e+00   6.5486689e+03
 7.1659002e+00   6.4916945e+03
 7.1705799e+00   6.5032883e+03
 7.1752601e+00   6.5175906e+03
 7.1799402e+00   6.4933818e+03
 7.1846199e+00   6.4916197e+03
 7.1893001e+00   6.4761429e+03
 7.1939802e+00   6.4733134e+03
 7.1986599e+00   6.4731531e+03
 7.2033401e+00   6.4705197e+03
 7.2080202e+00   6.4461545e+03
 7.2126999e+00   6.4829432e+03
 7.2173800e+00   6.4197277e+03
 7.2220602e+00   6.4533283e+03
 7.2267399e+00   6.4318525e+03
 7.2314200e+00   6.4387063e+03
 7.2361002e+00   6.4289928e+03
 7.2407799e+00   6.4379195e+03
 7.2454600e+00   6.4267031e+03
 7.2501402e+00   6.4705225e+03
 7.2548199e+00   6.4681344e+03
 7.2595000e+00   6.4642831e+03
 7.2641802e+00   6.4823663e+03
 7.2688599e+00   6.4685015e+03
 7.2735400e+00   6.4700164e+03
 7.2782202e+00   6.4636115e+03
 7.2828999e+00   6.4519840e+03
 7.2875800e+00   6.4419177e+03
 7.2922602e+00   6.4392311e+03
 7.2969398e+00   6.4396284e+03
 7.3016200e+00   6.4361116e+03
 7.3063002e+00   6.4205008e+03
 7.3109798e+00   6.4464369e+03
 7.3156600e+00   6.4315985e+03
 7.3203402e+00   6.4491051e+03
 7.3250198e+00   6.4518105e+03
 7.3297000e+00   6.4456923e+03
 7.3343801e+00   6.4501933e+03
 7.3390598e+00   6.4795105e+03
 7.3437400e+00   6.4757446e+03
 7.3484201e+00   6.4739929e+03
 7.3530998e+00   6.4778309e+03
 7.3577800e+00   6.4864985e+03
 7.3624601e+00   6.4793914e+03
 7.3671398e+00   6.4597662e+03
 7.3718200e+00   6.4782649e+03
 7.3765001e+00   6.4680413e+03
 7.3811798e+00   6.4589232e+03
 7.3858600e+00   6.4516723e+03
 7.3905401e+00   6.4371507e+03
 7.3952198e+00   6.4145815e+03
 7.3999000e+00   6.4253366e+03
 7.4045801e+00   6.4109551e+03
 7.4092598e+00   6.3874542e+03
 7.4139400e+00   6.3983419e+03
 7.4186201e+00   6.3674674e+03
 7.4232998e+00   6.3792867e+03
 7.4279799e+00   6.3552520e+03
 7.4326601e+00   6.3606431e+03
 7.4373398e+00   6.3585195e+03
 7.4420199e+00   6.3637256e+03
 7.4467001e+00   6.3472326e+03
 7.4513798e+00   6.3691926e+03
 7.4560599e+00   6.3572181e+03
 7.4607401e+00   6.3540261e+03
 7.4654198e+00   6.3623402e+03
 7.4700999e+00   6.3496331e+03
 7.4747801e+00   6.3626001e+03
 7.4794598e+00   6.3450498e+03
 7.4841399e+00   6.3739217e+03
 7.4888201e+00   6.3619067e+03
 7.4935002e+00   6.3640387e+03
 7.4981799e+00   6.3623084e+03
 7.5028601e+00   6.3924468e+03
 7.5075402e+00   6.3924349e+03
 7.5122199e+00   6.4233076e+03
 7.5169001e+00   6.4293206e+03
 7.5215802e+00   6.4531910e+03
 7.5262599e+00   6.4837056e+03
 7.5309401e+00   6.5075853e+03
 7.5356202e+00   6.5545882e+03
 7.5402999e+00   6.5981353e+03
 7.5449800e+00   6.6864462e+03
 7.5496602e+00   6.7603475e+03
 7.5543399e+00   6.8856187e+03
 7.5590200e+00   7.0365089e+03
 7.5637002e+00   7.2466400e+03
 7.5683799e+00   7.4760575e+03
 7.5730600e+00   7.8199425e+03
 7.5777402e+00   8.2103032e+03
 7.5824199e+00   8.7379469e+03
 7.5871000e+00   9.3251837e+03
 7.5917802e+00   1.0002496e+04
 7.5964599e+00   1.0709191e+04
 7.6011400e+00   1.1373880e+04
 7.6058202e+00   1.1906025e+04
 7.6104999e+00   1.2220913e+04
 7.6151800e+00   1.2287758e+04
 7.6198602e+00   1.2014989e+04
 7.6245399e+00   1.1615279e+04
 7.6292200e+00   1.0943602e+04
 7.6339002e+00   1.0273518e+04
 7.6385798e+00   9.5382488e+03
 7.6432600e+00   8.8933419e+03
 7.6479402e+00   8.3150014e+03
 7.6526198e+00   7.9048430e+03
 7.6573000e+00   7.4835187e+03
 7.6619802e+00   7.2295863e+03
 7.6666598e+00   6.9554775e+03
 7.6713400e+00   6.7405056e+03
 7.6760201e+00   6.5858900e+03
 7.6806998e+00   6.4824043e+03
 7.6853800e+00   6.3984668e+03
 7.6900601e+00   6.3215644e+03
 7.6947398e+00   6.2564968e+03
 7.6994200e+00   6.1960098e+03
 7.7041001e+00   6.1674941e+03
 7.7087798e+00   6.1373390e+03
 7.7134600e+00   6.1113528e+03
 7.7181401e+00   6.0624521e+03
 7.7228198e+00   6.0634415e+03
 7.7275000e+00   6.0227639e+03
 7.7321801e+00   6.0206815e+03
 7.7368598e+00   5.9823346e+03
 7.7415400e+00   5.9838988e+03
 7.7462201e+00   5.9271497e+03
 7.7508998e+00   5.9116304e+03
 7.7555799e+00   5.8810495e+03
 7.7602601e+00   5.8945626e+03
 7.7649398e+00   5.8540135e+03
 7.7696199e+00   5.8512834e+03
 7.7743001e+00   5.8481978e+03
 7.7789798e+00   5.8019543e+03
 7.7836599e+00   5.8236559e+03
 7.7883401e+00   5.7777745e+03
 7.7930198e+00   5.7964955e+03
 7.7976999e+00   5.7765019e+03
 7.8023801e+00   5.7664682e+03
 7.8070598e+00   5.7434596e+03
 7.8117399e+00   5.7664208e+03
 7.8164201e+00   5.7186858e+03
 7.8211002e+00   5.7358678e+03
 7.8257799e+00   5.7074567e+03
 7.8304601e+00   5.7014423e+03
 7.8351402e+00   5.7312747e+03
 7.8398199e+00   5.6977001e+03
 7.8445001e+00   5.6786889e+03
 7.8491802e+00   5.6985939e+03
 7.8538599e+00   5.6509381e+03
 7.8585401e+00   5.6632380e+03
 7.8632202e+00   5.6777298e+03
 7.8678999e+00   5.6284402e+03
 7.8725801e+00   5.6546896e+03
 7.8772602e+00   5.6424260e+03
 7.8819399e+00   5.6369082e+03
 7.8866200e+00   5.6263107e+03
 7.8913002e+00   5.6177437e+03
 7.8959799e+00   5.6210892e+03
 7.9006600e+00   5.6255654e+03
 7.9053402e+00   5.5868271e+03
 7.9100199e+00   5.6193549e+03
 7.9147000e+00   5.5875661e+03
 7.9193802e+00   5.5810727e+03
 7.9240599e+00   5.5987092e+03
 7.9287400e+00   5.5666232e+03
 7.9334202e+00   5.5723997e+03
 7.9380999e+00   5.5753869e+03
 7.9427800e+00   5.5636589e+03
 7.9474602e+00   5.5739113e+03
 7.9521399e+00   5.5655178e+03
 7.9568200e+00   5.5572026e+03
 7.9615002e+00   5.5914208e+03
 7.9661798e+00   5.5636535e+03
 7.9708600e+00   5.5713427e+03
 7.9755402e+00   5.5725275e+03
 7.9802198e+00   5.5613457e+03
 7.9849000e+00   5.5961458e+03
 7.9895802e+00   5.6068418e+03
 7.9942598e+00   5.6055200e+03
 7.9989400e+00   5.6443634e+03
 8.0036201e+00   5.6558014e+03
 8.0082998e+00   5.7059047e+03
 8.0129805e+00   5.7664789e+03
 8.0176601e+00   5.8266830e+03
 8.0223398e+00   5.9607550e+03
 8.0270205e+00   6.0856953e+03
 8.0317001e+00   6.2511875e+03
 8.0363798e+00   6.5266602e+03
 8.0410604e+00   6.8205901e+03
 8.0457401e+00   7.2878684e+03
 8.0504198e+00   7.8607580e+03
 8.0551004e+00   8.4578505e+03
 8.0597801e+00   9.2416984e+03
 8.0644598e+00   1.0008471e+04
 8.0691404e+00   1.0752820e+04
 8.0738201e+00   1.1388515e+04
 8.0784998e+00   1.1745353e+04
 8.0831804e+00   1.1819294e+04
 8.0878601e+00   1.1658819e+04
 8.0925398e+00   1.1136987e+04
 8.0972204e+00   1.0465225e+04
 8.1019001e+00   9.6993636e+03
 8.1065798e+00   8.9087304e+03
 8.1112604e+00   8.2237094e+03
 8.1159401e+00   7.6018653e+03
 8.1206198e+00   7.0834253e+03
 8.1253004e+00   6.6867218e+03
 8.1299801e+00   6.3981926e+03
 8.1346598e+00   6.1688520e+03
 8.1393404e+00   6.0169888e+03
 8.1440201e+00   5.8431124e+03
 8.1486998e+00   5.7531418e+03
 8.1533804e+00   5.6314298e+03
 8.1580601e+00   5.5959786e+03
 8.1627398e+00   5.5213835e+03
 8.1674204e+00   5.4997382e+03
 8.1721001e+00   5.4338019e+03
 8.1767797e+00   5.4252497e+03
 8.1814604e+00   5.3833583e+03
 8.1861401e+00   5.4074280e+03
 8.1908197e+00   5.3506081e+03
 8.1955004e+00   5.3457136e+03
 8.2001801e+00   5.3373122e+03
 8.2048597e+00   5.3063683e+03
 8.2095404e+00   5.3278961e+03
 8.2142200e+00   5.3147647e+03
 8.2188997e+00   5.3105598e+03
 8.2235804e+00   5.2974647e+03
 8.2282600e+00   5.3053700e+03
 8.2329397e+00   5.2978853e+03
 8.2376204e+00   5.3239152e+03
 8.2423000e+00   5.2939335e+03
 8.2469797e+00   5.3087459e+03
 8.2516603e+00   5.2773829e+03
 8.2563400e+00   5.2594191e+03
 8.2610197e+00   5.2639504e+03
 8.2657003e+00   5.2621841e+03
 8.2703800e+00   5.2441620e+03
 8.2750597e+00   5.2552024e+03
 8.2797403e+00   5.2373595e+03
 8.2844200e+00   5.2140492e+03
 8.2890997e+00   5.2434041e+03
 8.2937803e+00   5.2119278e+03
 8.2984600e+00   5.2542646e+03
 8.3031397e+00   5.2569304e+03
 8.3078203e+00   5.2786262e+03
 8.3125000e+00   5.2789499e+03
 8.3171797e+00   5.3070897e+03
 8.3218603e+00   5.3258458e+03
 8.3265400e+00   5.3605289e+03
 8.3312197e+00   5.3936410e+03
 8.3359003e+00   5.4505005e+03
 8.3405800e+00   5.4980885e+03
 8.3452597e+00   5.6068911e+03
 8.3499403e+00   5.7443190e+03
 8.3546200e+00   5.8995449e+03
 8.3592997e+00   6.0737820e+03
 8.3639803e+00   6.3258232e+03
 8.3686600e+00   6.5848634e+03
 8.3733397e+00   6.9592901e+03
 8.3780203e+00   7.3471596e+03
 8.3827000e+00   7.7997936e+03
 8.3873796e+00   8.1764026e+03
 8.3920603e+00   8.6869532e+03
 8.3967400e+00   9.2356565e+03
 8.4014196e+00   9.5700311e+03
 8.4061003e+00   9.8450279e+03
 8.4107800e+00   9.5719607e+03
 8.4154596e+00   9.0498022e+03
 8.4201403e+00   8.4833202e+03
 8.4248199e+00   7.6113181e+03
 8.4294996e+00   6.9300954e+03
 8.4341803e+00   6.4054453e+03
 8.4388599e+00   6.0723586e+03
 8.4435396e+00   5.8070948e+03
 8.4482203e+00   5.5670978e+03
 8.4528999e+00   5.4526971e+03
 8.4575796e+00   5.3556389e+03
 8.4622602e+00   5.2906822e+03
 8.4669399e+00   5.2715817e+03
 8.4716196e+00   5.2165680e+03
 8.4763002e+00   5.1994306e+03
 8.4809799e+00   5.1674950e+03
 8.4856596e+00   5.1540149e+03
 8.4903402e+00   5.1322072e+03
 8.4950199e+00   5.1476233e+03
 8.4996996e+00   5.1272705e+03
 8.5043802e+00   5.1238594e+03
 8.5090599e+00   5.0925675e+03
 8.5137396e+00   5.1030592e+03
 8.5184202e+00   5.0823102e+03
 8.5230999e+00   5.0965601e+03
 8.5277796e+00   5.0741302e+03
 8.5324602e+00   5.0854376e+03
 8.5371399e+00   5.0735332e+03
 8.5418196e+00   5.0675969e+03
 8.5465002e+00   5.0589373e+03
 8.5511799e+00   5.0677237e+03
 8.5558596e+00   5.0614011e+03
 8.5605402e+00   5.0323362e+03
 8.5652199e+00   5.0439975e+03
 8.5698996e+00   5.0179411e+03
 8.5745802e+00   5.0456625e+03
 8.5792599e+00   5.0034373e+03
 8.5839396e+00   5.0287172e+03
 8.5886202e+00   5.0171642e+03
 8.5932999e+00   5.0160990e+03
 8.5979795e+00   5.0071104e+03
 8.6026602e+00   5.0113927e+03
 8.6073399e+00   4.9998754e+03
 8.6120195e+00   5.0068461e+03
 8.6167002e+00   4.9941607e+03
 8.6213799e+00   4.9857551e+03
 8.6260595e+00   4.9852764e+03
 8.6307402e+00   4.9794856e+03
 8.6354198e+00   4.9826057e+03
 8.6400995e+00   4.9834502e+03
 8.6447802e+00   4.9742839e+03
 8.6494598e+00   4.9587442e+03
 8.6541405e+00   4.9722787e+03
 8.6588202e+00   4.9632002e+03
 8.6634998e+00   4.9645699e+03
 8.6681805e+00   4.9504170e+03
 8.6728601e+00   4.9514015e+03
 8.6775398e+00   4.9361776e+03
 8.6822205e+00   4.9296787e+03
 8.6869001e+00   4.9417190e+03
 8.6915798e+00   4.9318007e+03
 8.6962605e+00   4.9387503e+03
 8.7009401e+00   4.9274878e+03
 8.7056198e+00   4.9295951e+03
 8.7103004e+00   4.9278875e+03
 8.7149801e+00   4.9317889e+03
 8.7196598e+00   4.9201099e+03
 8.7243404e+00   4.9353266e+03
 8.7290201e+00   4.9287468e+03
 8.7336998e+00   4.9279783e+03
 8.7383804e+00   4.9172014e+03
 8.7430601e+00   4.9296050e+03
 8.7477398e+00   4.9358599e+03
 8.7524204e+00   4.9319694e+03
 8.7571001e+00   4.9386777e+03
 8.7617798e+00   4.9451737e+03
 8.7664604e+00   4.9559299e+03
 8.7711401e+00   4.9607668e+03
 8.7758198e+00   4.9757137e+03
 8.7805004e+00   5.0025176e+03
 8.7851801e+00   5.0223089e+03
 8.7898598e+00   5.0557213e+03
 8.7945404e+00   5.1058592e+03
 8.7992201e+00   5.1401655e+03
 8.8038998e+00   5.2106958e+03
 8.8085804e+00   5.2758805e+03
 8.8132601e+00   5.3848620e+03
 8.8179398e+00   5.4842038e+03
 8.8226204e+00   5.6385682e+03
 8.8273001e+00   5.8099067e+03
 8.8319798e+00   5.9900532e+03
 8.8366604e+00   6.1577447e+03
 8.8413401e+00   6.3343062e+03
 8.8460197e+00   6.4578216e+03
 8.8507004e+00   6.5234234e+03
 8.8553801e+00   6.5289641e+03
 8.8600597e+00   6.4670400e+03
 8.8647404e+00   6.3655303e+03
 8.8694201e+00   6.1835797e+03
 8.8740997e+00   6.0095336e+03
 8.8787804e+00   5.8234183e+03
 8.8834600e+00   5.6460012e+03
 8.8881397e+00   5.4959991e+03
 8.8928204e+00   5.3825502e+03
 8.8975000e+00   5.2613480e+03
 8.9021797e+00   5.1862947e+03
 8.9068604e+00   5.1088090e+03
 8.9115400e+00   5.0676081e+03
 8.9162197e+00   5.0175837e+03
 8.9209003e+00   4.9911505e+03
 8.9255800e+00   4.9818434e+03
 8.9302597e+00   4.9594708e+03
 8.9349403e+00   4.9327443e+03
 8.9396200e+00   4.9340210e+03
 8.9442997e+00   4.9322756e+03
 8.9489803e+00   4.9203869e+03
 8.9536600e+00   4.9262614e+03
 8.9583397e+00   4.9172253e+03
 8.9630203e+00   4.9332817e+03
 8.9677000e+00   4.9387879e+03
 8.9723797e+00   4.9727487e+03
 8.9770603e+00   4.9874759e+03
 8.9817400e+00   5.0323243e+03
 8.9864197e+00   5.0687456e+03
 8.9911003e+00   5.1226623e+03
 8.9957800e+00   5.1830919e+03
 9.0004597e+00   5.2694507e+03
 9.0051403e+00   5.3711240e+03
 9.0098200e+00   5.4681172e+03
 9.0144997e+00   5.5575303e+03
 9.0191803e+00   5.6123703e+03
 9.0238600e+00   5.6653887e+03
 9.0285397e+00   5.6730131e+03
 9.0332203e+00   5.6508050e+03
 9.0379000e+00   5.5909035e+03
 9.0425797e+00   5.5074271e+03
 9.0472603e+00   5.3994213e+03
 9.0519400e+00   5.3030469e+03
 9.0566196e+00   5.1906063e+03
 9.0613003e+00   5.1290761e+03
 9.0659800e+00   5.0582267e+03
 9.0706596e+00   4.9952047e+03
 9.0753403e+00   4.9583276e+03
 9.0800200e+00   4.9215817e+03
 9.0846996e+00   4.8925629e+03
 9.0893803e+00   4.8762729e+03
 9.0940599e+00   4.8664505e+03
 9.0987396e+00   4.8532169e+03
 9.1034203e+00   4.8452589e+03
 9.1080999e+00   4.8407162e+03
 9.1127796e+00   4.8305707e+03
 9.1174603e+00   4.8281037e+03
 9.1221399e+00   4.8314546e+03
 9.1268196e+00   4.8313572e+03
 9.1315002e+00   4.8309985e+03
 9.1361799e+00   4.8201882e+03
 9.1408596e+00   4.8326240e+03
 9.1455402e+00   4.8329867e+03
 9.1502199e+00   4.8328236e+03
 9.1548996e+00   4.8480682e+03
 9.1595802e+00   4.8533582e+03
 9.1642599e+00   4.8708379e+03
 9.1689396e+00   4.8811319e+03
 9.1736202e+00   4.8903282e+03
 9.1782999e+00   4.9095107e+03
 9.1829796e+00   4.9374336e+03
 9.1876602e+00   4.9495594e+03
 9.1923399e+00   4.9950026e+03
 9.1970196e+00   5.0200551e+03
 9.2017002e+00   5.0913379e+03
 9.2063799e+00   5.1620545e+03
 9.2110596e+00   5.2576201e+03
 9.2157402e+00   5.3852306e+03
 9.2204199e+00   5.5169113e+03
 9.2250996e+00   5.6899373e+03
 9.2297802e+00   5.9092386e+03
 9.2344599e+00   6.1309109e+03
 9.2391396e+00   6.3968412e+03
 9.2438202e+00   6.6298978e+03
 9.2484999e+00   6.8240303e+03
 9.2531796e+00   6.9940408e+03
 9.2578602e+00   7.0636647e+03
 9.2625399e+00   7.0526056e+03
 9.2672195e+00   6.9577425e+03
 9.2719002e+00   6.7910455e+03
 9.2765799e+00   6.5730163e+03
 9.2812595e+00   6.3276497e+03
 9.2859402e+00   6.0951293e+03
 9.2906199e+00   5.8836730e+03
 9.2952995e+00   5.6832709e+03
 9.2999802e+00   5.5089260e+03
 9.3046598e+00   5.3902170e+03
 9.3093395e+00   5.3030112e+03
 9.3140202e+00   5.2176193e+03
 9.3186998e+00   5.1796947e+03
 9.3233805e+00   5.1487639e+03
 9.3280602e+00   5.1346581e+03
 9.3327398e+00   5.1435638e+03
 9.3374205e+00   5.1487870e+03
 9.3421001e+00   5.1829570e+03
 9.3467798e+00   5.2087915e+03
 9.3514605e+00   5.2477727e+03
 9.3561401e+00   5.2848939e+03
 9.3608198e+00   5.2978411e+03
 9.3655005e+00   5.3203277e+03
 9.3701801e+00   5.3095445e+03
 9.3748598e+00   5.2872836e+03
 9.3795404e+00   5.2622968e+03
 9.3842201e+00   5.2054350e+03
 9.3888998e+00   5.1843234e+03
 9.3935804e+00   5.1586974e+03
 9.3982601e+00   5.1403590e+03
 9.4029398e+00   5.1251088e+03
 9.4076204e+00   5.1451506e+03
 9.4123001e+00   5.1754193e+03
 9.4169798e+00   5.2255137e+03
 9.4216604e+00   5.2956898e+03
 9.4263401e+00   5.3872071e+03
 9.4310198e+00   5.4818264e+03
 9.4357004e+00   5.6005628e+03
 9.4403801e+00   5.7399945e+03
 9.4450598e+00   5.8534386e+03
 9.4497404e+00   5.9684530e+03
 9.4544201e+00   6.0461051e+03
 9.4590998e+00   6.0875455e+03
 9.4637804e+00   6.1287800e+03
 9.4684601e+00   6.1171176e+03
 9.4731398e+00   6.1056392e+03
 9.4778204e+00   6.1020535e+03
 9.4825001e+00   6.0927773e+03
 9.4871798e+00   6.0979028e+03
 9.4918604e+00   6.0928324e+03
 9.4965401e+00   6.0789245e+03
 9.5012197e+00   6.0667061e+03
 9.5059004e+00   6.0004447e+03
 9.5105801e+00   5.9265553e+03
 9.5152597e+00   5.8301077e+03
 9.5199404e+00   5.7056570e+03
 9.5246201e+00   5.5865176e+03
 9.5292997e+00   5.4848955e+03
 9.5339804e+00   5.3581234e+03
 9.5386600e+00   5.2897054e+03
 9.5433397e+00   5.2121422e+03
 9.5480204e+00   5.1305268e+03
 9.5527000e+00   5.0840324e+03
 9.5573797e+00   5.0348743e+03
 9.5620604e+00   5.0133160e+03
 9.5667400e+00   4.9817745e+03
 9.5714197e+00   4.9587479e+03
 9.5761003e+00   4.9480051e+03
 9.5807800e+00   4.9191645e+03
 9.5854597e+00   4.9228658e+03
 9.5901403e+00   4.9062556e+03
 9.5948200e+00   4.9088574e+03
 9.5994997e+00   4.9036029e+03
 9.6041803e+00   4.8978072e+03
 9.6088600e+00   4.8974752e+03
 9.6135397e+00   4.8881169e+03
 9.6182203e+00   4.8889800e+03
 9.6229000e+00   4.8825891e+03
 9.6275797e+00   4.8948292e+03
 9.6322603e+00   4.8855038e+03
 9.6369400e+00   4.8958884e+03
 9.6416197e+00   4.8886304e+03
 9.6463003e+00   4.8974838e+03
 9.6509800e+00   4.8971404e+03
 9.6556597e+00   4.8980557e+03
 9.6603403e+00   4.9043260e+03
 9.6650200e+00   4.9016074e+03
 9.6696997e+00   4.9033844e+03
 9.6743803e+00   4.9155410e+03
 9.6790600e+00   4.9156178e+03
 9.6837397e+00   4.9181358e+03
 9.6884203e+00   4.9372682e+03
 9.6931000e+00   4.9323339e+03
 9.6977797e+00   4.9375852e+03
 9.7024603e+00   4.9521685e+03
 9.7071400e+00   4.9634340e+03
 9.7118196e+00   4.9782033e+03
 9.7165003e+00   4.9890340e+03
 9.7211800e+00   5.0024560e+03
 9.7258596e+00   5.0275545e+03
 9.7305403e+00   5.0350570e+03
 9.7352200e+00   5.0722748e+03
 9.7398996e+00   5.1239822e+03
 9.7445803e+00   5.1597057e+03
 9.7492599e+00   5.2167739e+03
 9.7539396e+00   5.2946553e+03
 9.7586203e+00   5.3819415e+03
 9.7632999e+00   5.5028287e+03
 9.7679796e+00   5.6397546e+03
 9.7726603e+00   5.8215296e+03
 9.7773399e+00   6.0403203e+03
 9.7820196e+00   6.2889402e+03
 9.7867002e+00   6.5733538e+03
 9.7913799e+00   6.8427000e+03
 9.7960596e+00   7.1277104e+03
 9.8007402e+00   7.3449349e+03
 9.8054199e+00   7.5199750e+03
 9.8100996e+00   7.5984815e+03
 9.8147802e+00   7.6048814e+03
 9.8194599e+00   7.5526233e+03
 9.8241396e+00   7.4794455e+03
 9.8288202e+00   7.4566271e+03
 9.8334999e+00   7.6113738e+03
 9.8381796e+00   7.9974094e+03
 9.8428602e+00   8.6459404e+03
 9.8475399e+00   9.7732345e+03
 9.8522196e+00   1.0650743e+04
 9.8569002e+00   1.2011356e+04
 9.8615799e+00   1.2522804e+04
 9.8662596e+00   1.2702970e+04
 9.8709402e+00   1.1850224e+04
 9.8756199e+00   1.0910607e+04
 9.8802996e+00   9.3188371e+03
 9.8849802e+00   8.0416847e+03
 9.8896599e+00   7.1017942e+03
 9.8943396e+00   6.4325127e+03
 9.8990202e+00   5.9296833e+03
 9.9036999e+00   5.6199276e+03
 9.9083796e+00   5.4253093e+03
 9.9130602e+00   5.2760258e+03
 9.9177399e+00   5.2056144e+03
 9.9224195e+00   5.1631920e+03
 9.9271002e+00   5.1238501e+03
 9.9317799e+00   5.0922203e+03
 9.9364595e+00   5.0805762e+03
 9.9411402e+00   5.0621487e+03
 9.9458199e+00   5.0501218e+03
 9.9504995e+00   5.0513985e+03
 9.9551802e+00   5.0290714e+03
 9.9598598e+00   5.0453069e+03
 9.9645395e+00   5.0341751e+03
 9.9692202e+00   5.0428255e+03
 9.9738998e+00   5.0311536e+03
 9.9785805e+00   5.0328582e+03
 9.9832602e+00   5.0332562e+03
 9.9879398e+00   5.0458839e+03
 9.9926205e+00   5.0331024e+03
 9.9973001e+00   5.0445179e+03
 1.0001980e+01   5.0431454e+03
 1.0006660e+01   5.0505378e+03
 1.0011340e+01   5.0384036e+03
 1.0016020e+01   5.0495047e+03
 1.0020700e+01   5.0511870e+03
 1.0025380e+01   5.0580609e+03
 1.0030060e+01   5.0607884e+03
 1.0034740e+01   5.0763328e+03
 1.0039420e+01   5.0873385e+03
 1.0044100e+01   5.1083392e+03
 1.0048780e+01   5.1340362e+03
 1.0053460e+01   5.1363399e+03
 1.0058140e+01   5.1626247e+03
 1.0062820e+01   5.1649596e+03
 1.0067500e+01   5.1766507e+03
 1.0072180e+01   5.1500091e+03
 1.0076860e+01   5.1662215e+03
 1.0081540e+01   5.1301297e+03
 1.0086220e+01   5.1251013e+03
 1.0090900e+01   5.1050569e+03
 1.0095580e+01   5.0852777e+03
 1.0100260e+01   5.0621358e+03
 1.0104940e+01   5.0537475e+03
 1.0109620e+01   5.0437812e+03
 1.0114300e+01   5.0272171e+03
 1.0118980e+01   5.0389729e+03
 1.0123660e+01   5.0095302e+03
 1.0128340e+01   5.0161970e+03
 1.0133020e+01   5.0047651e+03
 1.0137700e+01   5.0076425e+03
 1.0142380e+01   5.0135910e+03
 1.0147060e+01   5.0114223e+03
 1.0151740e+01   4.9992115e+03
 1.0156420e+01   5.0077785e+03
 1.0161100e+01   5.0068128e+03
 1.0165780e+01   5.0035521e+03
 1.0170460e+01   5.0135283e+03
 1.0175140e+01   5.0123686e+03
 1.0179820e+01   5.0064780e+03
 1.0184500e+01   5.0034150e+03
 1.0189180e+01   4.9993783e+03
 1.0193860e+01   5.0156466e+03
 1.0198540e+01   5.0222963e+03
 1.0203220e+01   5.0056595e+03
 1.0207900e+01   5.0244873e+03
 1.0212580e+01   5.0029136e+03
 1.0217260e+01   5.0263425e+03
 1.0221940e+01   5.0176686e+03
 1.0226620e+01   5.0209315e+03
 1.0231300e+01   5.0338108e+03
 1.0235980e+01   5.0463189e+03
 1.0240660e+01   5.0545259e+03
 1.0245340e+01   5.0719949e+03
 1.0250020e+01   5.0758117e+03
 1.0254700e+01   5.1121144e+03
 1.0259380e+01   5.1594219e+03
 1.0264060e+01   5.2346727e+03
 1.0268740e+01   5.3769256e+03
 1.0273420e+01   5.5517841e+03
 1.0278100e+01   5.8518441e+03
 1.0282780e+01   6.2441769e+03
 1.0287460e+01   6.7691340e+03
 1.0292140e+01   7.4382971e+03
 1.0296820e+01   7.9981862e+03
 1.0301500e+01   8.3521614e+03
 1.0306180e+01   8.1976779e+03
 1.0310860e+01   8.1052591e+03
 1.0315540e+01   7.5484678e+03
 1.0320220e+01   6.8377202e+03
 1.0324900e+01   6.3444716e+03
 1.0329580e+01   5.9235212e+03
 1.0334260e+01   5.5907204e+03
 1.0338940e+01   5.3603903e+03
 1.0343620e+01   5.2333508e+03
 1.0348300e+01   5.1621060e+03
 1.0352980e+01   5.1060182e+03
 1.0357660e+01   5.0814355e+03
 1.0362340e+01   5.0523998e+03
 1.0367020e+01   5.0379117e+03
 1.0371700e+01   5.0193734e+03
 1.0376380e+01   5.0247420e+03
 1.0381060e+01   5.0070445e+03
 1.0385740e+01   5.0119400e+03
 1.0390420e+01   5.0030448e+03
 1.0395100e+01   5.0046933e+03
 1.0399780e+01   4.9987516e+03
 1.0404460e+01   4.9996392e+03
 1.0409140e+01   5.0003975e+03
 1.0413820e+01   5.0015835e+03
 1.0418500e+01   5.0000541e+03
 1.0423180e+01   4.9940077e+03
 1.0427860e+01   4.9800815e+03
 1.0432540e+01   4.9817673e+03
 1.0437220e+01   4.9851044e+03
 1.0441900e+01   4.9760564e+03
 1.0446580e+01   4.9915818e+03
 1.0451260e+01   4.9745665e+03
 1.0455940e+01   4.9703451e+03
 1.0460620e+01   4.9723066e+03
 1.0465300e+01   4.9798793e+03
 1.0469980e+01   4.9702664e+03
 1.0474660e+01   4.9787515e+03
 1.0479340e+01   4.9836577e+03
 1.0484020e+01   4.9887999e+03
 1.0488700e+01   4.9908076e+03
 1.0493380e+01   4.9900306e+03
 1.0498060e+01   4.9964510e+03
 1.0502740e+01   4.9988069e+03
 1.0507420e+01   5.0036523e+03
 1.0512100e+01   5.0224249e+03
 1.0516780e+01   5.0259906e+03
 1.0521460e+01   5.0328492e+03
 1.0526140e+01   5.0511631e+03
 1.0530820e+01   5.0527969e+03
 1.0535500e+01   5.0732315e+03
 1.0540180e+01   5.0792371e+03
 1.0544860e+01   5.0744999e+03
 1.0549540e+01   5.0818798e+03
 1.0554220e+01   5.0903014e+03
 1.0558900e+01   5.0705309e+03
 1.0563580e+01   5.0544309e+03
 1.0568260e+01   5.0330000e+03
 1.0572940e+01   5.0039666e+03
 1.0577620e+01   5.0032988e+03
 1.0582300e+01   4.9713543e+03
 1.0586980e+01   4.9683214e+03
 1.0591660e+01   4.9507245e+03
 1.0596340e+01   4.9511383e+03
 1.0601020e+01   4.9328984e+03
 1.0605700e+01   4.9192710e+03
 1.0610380e+01   4.9228254e+03
 1.0615060e+01   4.9102524e+03
 1.0619740e+01   4.9112481e+03
 1.0624420e+01   4.9047808e+03
 1.0629100e+01   4.9156317e+03
 1.0633780e+01   4.8975306e+03
 1.0638460e+01   4.9168219e+03
 1.0643140e+01   4.9007274e+03
 1.0647820e+01   4.9097178e+03
 1.0652500e+01   4.9168059e+03
 1.0657180e+01   4.9287635e+03
 1.0661860e+01   4.9354739e+03
 1.0666540e+01   4.9522189e+03
 1.0671220e+01   4.9585376e+03
 1.0675900e+01   4.9793166e+03
 1.0680580e+01   5.0124191e+03
 1.0685260e+01   5.0357902e+03
 1.0689940e+01   5.0829195e+03
 1.0694620e+01   5.1110378e+03
 1.0699300e+01   5.1837136e+03
 1.0703980e+01   5.2158867e+03
 1.0708660e+01   5.2600831e+03
 1.0713340e+01   5.3052093e+03
 1.0718020e+01   5.3098493e+03
 1.0722700e+01   5.3125247e+03
 1.0727380e+01   5.3228660e+03
 1.0732060e+01   5.2829457e+03
 1.0736740e+01   5.2589741e+03
 1.0741420e+01   5.1947084e+03
 1.0746100e+01   5.1519706e+03
 1.0750780e+01   5.0964237e+03
 1.0755460e+01   5.0512311e+03
 1.0760140e+01   5.0009187e+03
 1.0764820e+01   4.9738664e+03
 1.0769500e+01   4.9332291e+03
 1.0774180e+01   4.9130570e+03
 1.0778860e+01   4.8963710e+03
 1.0783540e+01   4.8709398e+03
 1.0788220e+01   4.8654095e+03
 1.0792900e+01   4.8406343e+03
 1.0797580e+01   4.8464587e+03
 1.0802260e+01   4.8283894e+03
 1.0806940e+01   4.8203010e+03
 1.0811620e+01   4.8243644e+03
 1.0816300e+01   4.8230291e+03
 1.0820980e+01   4.8188716e+03
 1.0825660e+01   4.8199410e+03
 1.0830340e+01   4.8182195e+03
 1.0835020e+01   4.8066071e+03
 1.0839700e+01   4.8200978e+03
 1.0844380e+01   4.8078443e+03
 1.0849060e+01   4.8110462e+03
 1.0853740e+01   4.7988227e+03
 1.0858420e+01   4.7910177e+03
 1.0863100e+01   4.7979595e+03
 1.0867780e+01   4.7834101e+03
 1.0872460e+01   4.7834041e+03
 1.0877140e+01   4.7669382e+03
 1.0881820e+01   4.7687734e+03
 1.0886500e+01   4.7604918e+03
 1.0891180e+01   4.7461935e+03
 1.0895860e+01   4.7443792e+03
 1.0900540e+01   4.7412235e+03
 1.0905220e+01   4.7194492e+03
 1.0909900e+01   4.7230773e+03
 1.0914580e+01   4.7168779e+03
 1.0919260e+01   4.7139470e+03
 1.0923940e+01   4.7146762e+03
 1.0928620e+01   4.7063439e+03
 1.0933300e+01   4.7077514e+03
 1.0937980e+01   4.7029320e+03
 1.0942660e+01   4.6947746e+03
 1.0947340e+01   4.7023459e+03
 1.0952020e+01   4.7066355e+03
 1.0956700e+01   4.6933031e+03
 1.0961380e+01   4.7052578e+03
 1.0966060e+01   4.6901950e+03
 1.0970740e+01   4.6978100e+03
 1.0975420e+01   4.6894711e+03
 1.0980100e+01   4.6877592e+03
 1.0984780e+01   4.6803100e+03
 1.0989460e+01   4.6795830e+03
 1.0994140e+01   4.6855509e+03
 1.0998820e+01   4.6924152e+03
 1.1003500e+01   4.6888452e+03
 1.1008180e+01   4.6888114e+03
 1.1012860e+01   4.7060510e+03
 1.1017540e+01   4.7001974e+03
 1.1022220e+01   4.7134034e+03
 1.1026900e+01   4.7044368e+03
 1.1031580e+01   4.7170484e+03
 1.1036260e+01   4.7372686e+03
 1.1040940e+01   4.7441417e+03
 1.1045620e+01   4.7638831e+03
 1.1050300e+01   4.7978108e+03
 1.1054980e+01   4.8140968e+03
 1.1059660e+01   4.8688977e+03
 1.1064340e+01   4.8940909e+03
 1.1069020e+01   4.9649287e+03
 1.1073700e+01   5.0448291e+03
 1.1078380e+01   5.1259168e+03
 1.1083060e+01   5.2352784e+03
 1.1087740e+01   5.3312548e+03
 1.1092420e+01   5.4474152e+03
 1.1097100e+01   5.5730639e+03
 1.1101780e+01   5.6732088e+03
 1.1106460e+01   5.7357718e+03
 1.1111140e+01   5.7864075e+03
 1.1115820e+01   5.7815438e+03
 1.1120500e+01   5.7614493e+03
 1.1125180e+01   5.6766070e+03
 1.1129860e+01   5.5846954e+03
 1.1134540e+01   5.4667620e+03
 1.1139220e+01   5.3337768e+03
 1.1143900e+01   5.2197262e+03
 1.1148580e+01   5.1295055e+03
 1.1153260e+01   5.0208896e+03
 1.1157940e+01   4.9398503e+03
 1.1162620e+01   4.8705518e+03
 1.1167300e+01   4.8109928e+03
 1.1171980e+01   4.7701409e+03
 1.1176660e+01   4.7245896e+03
 1.1181340e+01   4.7132973e+03
 1.1186020e+01   4.6827109e+03
 1.1190700e+01   4.6572462e+03
 1.1195380e+01   4.6496972e+03
 1.1200060e+01   4.6280878e+03
 1.1204740e+01   4.6309764e+03
 1.1209420e+01   4.6134314e+03
 1.1214100e+01   4.6164759e+03
 1.1218780e+01   4.6014503e+03
 1.1223460e+01   4.6131731e+03
 1.1228140e+01   4.6156887e+03
 1.1232820e+01   4.6216675e+03
 1.1237500e+01   4.6110231e+03
 1.1242180e+01   4.6275031e+03
 1.1246860e+01   4.6161064e+03
 1.1251540e+01   4.6224336e+03
 1.1256220e+01   4.6198981e+03
 1.1260900e+01   4.6216135e+03
 1.1265580e+01   4.6433562e+03
 1.1270260e+01   4.6489391e+03
 1.1274940e+01   4.6540015e+03
 1.1279620e+01   4.6600872e+03
 1.1284300e+01   4.6694276e+03
 1.1288980e+01   4.6708448e+03
 1.1293660e+01   4.6721475e+03
 1.1298340e+01   4.6520439e+03
 1.1303020e+01   4.6501470e+03
 1.1307700e+01   4.6196786e+03
 1.1312380e+01   4.6112019e+03
 1.1317060e+01   4.5843015e+03
 1.1321740e+01   4.5580116e+03
 1.1326420e+01   4.5510070e+03
 1.1331100e+01   4.5287364e+03
 1.1335780e+01   4.5107519e+03
 1.1340460e+01   4.5082468e+03
 1.1345140e+01   4.5032722e+03
 1.1349820e+01   4.4834867e+03
 1.1354500e+01   4.4921413e+03
 1.1359180e+01   4.4711219e+03
 1.1363860e+01   4.4713339e+03
 1.1368540e+01   4.4684380e+03
 1.1373220e+01   4.4564717e+03
 1.1377900e+01   4.4635260e+03
 1.1382580e+01   4.4577378e+03
 1.1387260e+01   4.4592240e+03
 1.1391940e+01   4.4595067e+03
 1.1396620e+01   4.4475579e+03
 1.1401300e+01   4.4612101e+03
 1.1405980e+01   4.4542609e+03
 1.1410660e+01   4.4430270e+03
 1.1415340e+01   4.4577225e+03
 1.1420020e+01   4.4496313e+03
 1.1424700e+01   4.4566330e+03
 1.1429380e+01   4.4605284e+03
 1.1434060e+01   4.4461850e+03
 1.1438740e+01   4.4564426e+03
 1.1443420e+01   4.4627406e+03
 1.1448100e+01   4.4674567e+03
 1.1452780e+01   4.4904782e+03
 1.1457460e+01   4.4792846e+03
 1.1462140e+01   4.5005563e+03
 1.1466820e+01   4.5187489e+03
 1.1471500e+01   4.5343596e+03
 1.1476180e+01   4.5692736e+03
 1.1480860e+01   4.5804526e+03
 1.1485540e+01   4.6221196e+03
 1.1490220e+01   4.6598285e+03
 1.1494900e+01   4.7088707e+03
 1.1499580e+01   4.7755733e+03
 1.1504260e+01   4.8283061e+03
 1.1508940e+01   4.8932346e+03
 1.1513620e+01   4.9622467e+03
 1.1518300e+01   4.9970260e+03
 1.1522980e+01   5.0418575e+03
 1.1527660e+01   5.0635017e+03
 1.1532340e+01   5.0373290e+03
 1.1537020e+01   5.0243480e+03
 1.1541700e+01   4.9794919e+03
 1.1546380e+01   4.9134378e+03
 1.1551060e+01   4.8564080e+03
 1.1555740e+01   4.7723017e+03
 1.1560420e+01   4.7365746e+03
 1.1565100e+01   4.6558980e+03
 1.1569780e+01   4.6027008e+03
 1.1574460e+01   4.5746406e+03
 1.1579140e+01   4.5239963e+03
 1.1583820e+01   4.5007488e+03
 1.1588500e+01   4.4732927e+03
 1.1593180e+01   4.4500991e+03
 1.1597860e+01   4.4414677e+03
 1.1602540e+01   4.4226306e+03
 1.1607220e+01   4.4081083e+03
 1.1611900e+01   4.3972335e+03
 1.1616580e+01   4.3961140e+03
 1.1621260e+01   4.3921352e+03
 1.1625940e+01   4.3833891e+03
 1.1630620e+01   4.3687228e+03
 1.1635300e+01   4.3710486e+03
 1.1639980e+01   4.3576571e+03
 1.1644660e+01   4.3501620e+03
 1.1649340e+01   4.3439392e+03
 1.1654020e+01   4.3407879e+03
 1.1658700e+01   4.3313502e+03
 1.1663380e+01   4.3263861e+03
 1.1668060e+01   4.3112298e+03
 1.1672740e+01   4.3299560e+03
 1.1677420e+01   4.3156504e+03
 1.1682100e+01   4.3100983e+03
 1.1686780e+01   4.3081990e+03
 1.1691460e+01   4.2929909e+03
 1.1696140e+01   4.2970489e+03
 1.1700820e+01   4.2941391e+03
 1.1705500e+01   4.2938266e+03
 1.1710180e+01   4.2845761e+03
 1.1714860e+01   4.2885830e+03
 1.1719540e+01   4.2884153e+03
 1.1724220e+01   4.2865007e+03
 1.1728900e+01   4.2682514e+03
 1.1733580e+01   4.2749856e+03
 1.1738260e+01   4.2729677e+03
 1.1742940e+01   4.2759287e+03
 1.1747620e+01   4.2691397e+03
 1.1752300e+01   4.2666667e+03
 1.1756980e+01   4.2718092e+03
 1.1761660e+01   4.2639866e+03
 1.1766340e+01   4.2612760e+03
 1.1771020e+01   4.2674863e+03
 1.1775700e+01   4.2607996e+03
 1.1780380e+01   4.2517699e+03
 1.1785060e+01   4.2574540e+03
 1.1789740e+01   4.2479827e+03
 1.1794420e+01   4.2574844e+03
 1.1799100e+01   4.2461627e+03
 1.1803780e+01   4.2483668e+03
 1.1808460e+01   4.2496677e+03
 1.1813140e+01   4.2428760e+03
 1.1817820e+01   4.2429257e+03
 1.1822500e+01   4.2450713e+03
 1.1827180e+01   4.2429851e+03
 1.1831860e+01   4.2486103e+03
 1.1836540e+01   4.2428245e+03
 1.1841220e+01   4.2476909e+03
 1.1845900e+01   4.2491326e+03
 1.1850580e+01   4.2512312e+03
 1.1855260e+01   4.2734778e+03
 1.1859940e+01   4.2693579e+03
 1.1864620e+01   4.2794429e+03
 1.1869300e+01   4.3005588e+03
 1.1873980e+01   4.3332363e+03
 1.1878660e+01   4.3866705e+03
 1.1883340e+01   4.4478828e+03
 1.1888020e+01   4.5250612e+03
 1.1892700e+01   4.6506428e+03
 1.1897380e+01   4.7501620e+03
 1.1902060e+01   4.8127052e+03
 1.1906740e+01   4.8335328e+03
 1.1911420e+01   4.7860851e+03
 1.1916100e+01   4.7537147e+03
 1.1920780e+01   4.6209221e+03
 1.1925460e+01   4.5342948e+03
 1.1930140e+01   4.4541022e+03
 1.1934820e+01   4.3874161e+03
 1.1939500e+01   4.3720138e+03
 1.1944180e+01   4.3462541e+03
 1.1948860e+01   4.3395644e+03
 1.1953540e+01   4.3541809e+03
 1.1958220e+01   4.3740147e+03
 1.1962900e+01   4.3870983e+03
 1.1967580e+01   4.4346695e+03
 1.1972260e+01   4.4533512e+03
 1.1976940e+01   4.5016615e+03
 1.1981620e+01   4.5358811e+03
 1.1986300e+01   4.5683594e+03
 1.1990980e+01   4.6003867e+03
 1.1995660e+01   4.6107330e+03
 1.2000340e+01   4.6195440e+03
 1.2005020e+01   4.6149784e+03
 1.2009700e+01   4.5929612e+03
 1.2014380e+01   4.5637940e+03
 1.2019060e+01   4.5282401e+03
 1.2023740e+01   4.4795448e+03
 1.2028420e+01   4.4650004e+03
 1.2033100e+01   4.4236506e+03
 1.2037780e+01   4.4006370e+03
 1.2042460e+01   4.3727893e+03
 1.2047140e+01   4.3626822e+03
 1.2051820e+01   4.3610295e+03
 1.2056500e+01   4.3571523e+03
 1.2061180e+01   4.3680321e+03
 1.2065860e+01   4.3861582e+03
 1.2070540e+01   4.4203162e+03
 1.2075220e+01   4.4475158e+03
 1.2079900e+01   4.5046593e+03
 1.2084580e+01   4.5565094e+03
 1.2089260e+01   4.6325973e+03
 1.2093940e+01   4.6897915e+03
 1.2098620e+01   4.7930949e+03
 1.2103300e+01   4.8981635e+03
 1.2107980e+01   5.0086666e+03
 1.2112660e+01   5.1063842e+03
 1.2117340e+01   5.1925890e+03
 1.2122020e+01   5.2611993e+03
 1.2126700e+01   5.3048894e+03
 1.2131380e+01   5.2991278e+03
 1.2136060e+01   5.2813956e+03
 1.2140740e+01   5.2245331e+03
 1.2145420e+01   5.1379496e+03
 1.2150100e+01   5.0322007e+03
 1.2154780e+01   4.9112867e+03
 1.2159460e+01   4.8158322e+03
 1.2164140e+01   4.7048450e+03
 1.2168820e+01   4.5993074e+03
 1.2173500e+01   4.5241161e+03
 1.2178180e+01   4.4401950e+03
 1.2182860e+01   4.3872166e+03
 1.2187540e+01   4.3336884e+03
 1.2192220e+01   4.2834224e+03
 1.2196900e+01   4.2499622e+03
 1.2201580e+01   4.2201220e+03
 1.2206260e+01   4.1881136e+03
 1.2210940e+01   4.1739042e+03
 1.2215620e+01   4.1458751e+03
 1.2220300e+01   4.1333648e+03
 1.2224980e+01   4.1237461e+03
 1.2229660e+01   4.1095545e+03
 1.2234340e+01   4.1101473e+03
 1.2239020e+01   4.0887748e+03
 1.2243700e+01   4.0883446e+03
 1.2248380e+01   4.0741303e+03
 1.2253060e+01   4.0747344e+03
 1.2257740e+01   4.0586212e+03
 1.2262420e+01   4.0637302e+03
 1.2267100e+01   4.0596046e+03
 1.2271780e+01   4.0514614e+03
 1.2276460e+01   4.0494928e+03
 1.2281140e+01   4.0531593e+03
 1.2285820e+01   4.0527885e+03
 1.2290500e+01   4.0432192e+03
 1.2295180e+01   4.0478612e+03
 1.2299860e+01   4.0397418e+03
 1.2304540e+01   4.0413576e+03
 1.2309220e+01   4.0499118e+03
 1.2313900e+01   4.0540592e+03
 1.2318580e+01   4.0590352e+03
 1.2323260e+01   4.0633191e+03
 1.2327940e+01   4.0621039e+03
 1.2332620e+01   4.0736085e+03
 1.2337300e+01   4.0924511e+03
 1.2341980e+01   4.1074905e+03
 1.2346660e+01   4.1363750e+03
 1.2351340e+01   4.1581045e+03
 1.2356020e+01   4.1900743e+03
 1.2360700e+01   4.2235376e+03
 1.2365380e+01   4.2561845e+03
 1.2370060e+01   4.2857988e+03
 1.2374740e+01   4.3236029e+03
 1.2379420e+01   4.3346146e+03
 1.2384100e+01   4.3578596e+03
 1.2388780e+01   4.3720483e+03
 1.2393460e+01   4.3737150e+03
 1.2398140e+01   4.3857391e+03
 1.2402820e+01   4.3642389e+03
 1.2407500e+01   4.3862691e+03
 1.2412180e+01   4.3828486e+03
 1.2416860e+01   4.4107606e+03
 1.2421540e+01   4.4356927e+03
 1.2426220e+01   4.4714493e+03
 1.2430900e+01   4.5146423e+03
 1.2435580e+01   4.5624682e+03
 1.2440260e+01   4.6088985e+03
 1.2444940e+01   4.6519844e+03
 1.2449620e+01   4.6784501e+03
 1.2454300e+01   4.6965299e+03
 1.2458980e+01   4.7067557e+03
 1.2463660e+01   4.6873397e+03
 1.2468340e+01   4.6653291e+03
 1.2473020e+01   4.6416647e+03
 1.2477700e+01   4.6054929e+03
 1.2482380e+01   4.5687144e+03
 1.2487060e+01   4.5096638e+03
 1.2491740e+01   4.4577741e+03
 1.2496420e+01   4.4117411e+03
 1.2501100e+01   4.3598051e+03
 1.2505780e+01   4.3082994e+03
 1.2510460e+01   4.2580405e+03
 1.2515140e+01   4.2135510e+03
 1.2519820e+01   4.1722389e+03
 1.2524500e+01   4.1314857e+03
 1.2529180e+01   4.1025653e+03
 1.2533860e+01   4.0732302e+03
 1.2538540e+01   4.0607794e+03
 1.2543220e+01   4.0383473e+03
 1.2547900e+01   4.0188116e+03
 1.2552580e+01   4.0140046e+03
 1.2557260e+01   3.9891004e+03
 1.2561940e+01   3.9846406e+03
 1.2566620e+01   3.9729612e+03
 1.2571300e+01   3.9725665e+03
 1.2575980e+01   3.9617379e+03
 1.2580660e+01   3.9631465e+03
 1.2585340e+01   3.9537073e+03
 1.2590020e+01   3.9554195e+03
 1.2594700e+01   3.9476166e+03
 1.2599380e+01   3.9496575e+03
 1.2604060e+01   3.9471451e+03
 1.2608740e+01   3.9429017e+03
 1.2613420e+01   3.9468002e+03
 1.2618100e+01   3.9532737e+03
 1.2622780e+01   3.9575998e+03
 1.2627460e+01   3.9617182e+03
 1.2632140e+01   3.9802815e+03
 1.2636820e+01   3.9797989e+03
 1.2641500e+01   3.9892890e+03
 1.2646180e+01   4.0143190e+03
 1.2650860e+01   4.0301855e+03
 1.2655540e+01   4.0579340e+03
 1.2660220e+01   4.0910619e+03
 1.2664900e+01   4.1331694e+03
 1.2669580e+01   4.1863308e+03
 1.2674260e+01   4.2524068e+03
 1.2678940e+01   4.3270827e+03
 1.2683620e+01   4.4143877e+03
 1.2688300e+01   4.5106475e+03
 1.2692980e+01   4.6243975e+03
 1.2697660e+01   4.7500082e+03
