MA2-00003.tif Azm= 0.00
2-Theta Angle (Degrees)
Intensity
       2500
 1.0023400e+00   7.9955870e+03
 1.0070200e+00   7.9721735e+03
 1.0117000e+00   7.9195790e+03
 1.0163800e+00   7.9211967e+03
 1.0210600e+00   7.8653649e+03
 1.0257400e+00   7.8881063e+03
 1.0304199e+00   7.8205959e+03
 1.0351000e+00   7.7890314e+03
 1.0397800e+00   7.7740401e+03
 1.0444601e+00   7.7529630e+03
 1.0491400e+00   7.6892991e+03
 1.0538200e+00   7.7345434e+03
 1.0585001e+00   7.6725059e+03
 1.0631800e+00   7.6445906e+03
 1.0678600e+00   7.6926421e+03
 1.0725400e+00   7.6250270e+03
 1.0772200e+00   7.5842348e+03
 1.0819000e+00   7.5712775e+03
 1.0865800e+00   7.5455503e+03
 1.0912600e+00   7.5556784e+03
 1.0959400e+00   7.5204473e+03
 1.1006200e+00   7.5262878e+03
 1.1052999e+00   7.4530191e+03
 1.1099800e+00   7.4725743e+03
 1.1146600e+00   7.4518526e+03
 1.1193399e+00   7.4140701e+03
 1.1240200e+00   7.4240228e+03
 1.1287000e+00   7.4181558e+03
 1.1333801e+00   7.3917167e+03
 1.1380600e+00   7.3858679e+03
 1.1427400e+00   7.3804436e+03
 1.1474200e+00   7.3406834e+03
 1.1521000e+00   7.3412755e+03
 1.1567800e+00   7.3338504e+03
 1.1614600e+00   7.3250273e+03
 1.1661400e+00   7.2946847e+03
 1.1708200e+00   7.2774218e+03
 1.1755000e+00   7.2593217e+03
 1.1801800e+00   7.2840426e+03
 1.1848600e+00   7.2666401e+03
 1.1895400e+00   7.2439647e+03
 1.1942199e+00   7.2345966e+03
 1.1989000e+00   7.2352743e+03
 1.2035800e+00   7.2458845e+03
 1.2082601e+00   7.2394030e+03
 1.2129400e+00   7.2455521e+03
 1.2176200e+00   7.2085005e+03
 1.2223001e+00   7.2202600e+03
 1.2269800e+00   7.2113419e+03
 1.2316600e+00   7.2097740e+03
 1.2363400e+00   7.2108467e+03
 1.2410200e+00   7.1741434e+03
 1.2457000e+00   7.2011142e+03
 1.2503800e+00   7.1844714e+03
 1.2550600e+00   7.1871220e+03
 1.2597400e+00   7.1302641e+03
 1.2644200e+00   7.1666769e+03
 1.2691000e+00   7.1563471e+03
 1.2737800e+00   7.1568554e+03
 1.2784600e+00   7.1782971e+03
 1.2831399e+00   7.1537765e+03
 1.2878200e+00   7.1854104e+03
 1.2925000e+00   7.1707674e+03
 1.2971801e+00   7.1890596e+03
 1.3018600e+00   7.1952917e+03
 1.3065400e+00   7.1730162e+03
 1.3112200e+00   7.1979390e+03
 1.3159000e+00   7.1608435e+03
 1.3205800e+00   7.1813746e+03
 1.3252600e+00   7.2031079e+03
 1.3299400e+00   7.1762397e+03
 1.3346200e+00   7.2077150e+03
 1.3393000e+00   7.2574245e+03
 1.3439800e+00   7.1974432e+03
 1.3486600e+00   7.2364498e+03
 1.3533400e+00   7.2132255e+03
 1.3580199e+00   7.2435013e+03
 1.3627000e+00   7.2861420e+03
 1.3673800e+00   7.2597706e+03
 1.3720599e+00   7.2663365e+03
 1.3767400e+00   7.2855134e+03
 1.3814200e+00   7.2647080e+03
 1.3861001e+00   7.3090755e+03
 1.3907800e+00   7.2880132e+03
 1.3954600e+00   7.3132823e+03
 1.4001400e+00   7.2913199e+03
 1.4048200e+00   7.3216151e+03
 1.4095000e+00   7.3475367e+03
 1.4141800e+00   7.3918895e+03
 1.4188600e+00   7.3656659e+03
 1.4235400e+00   7.3992917e+03
 1.4282200e+00   7.4255058e+03
 1.4329000e+00   7.4255443e+03
 1.4375800e+00   7.4587377e+03
 1.4422600e+00   7.4681234e+03
 1.4469399e+00   7.5360506e+03
 1.4516200e+00   7.5394083e+03
 1.4563000e+00   7.5841364e+03
 1.4609801e+00   7.6015285e+03
 1.4656600e+00   7.6322405e+03
 1.4703400e+00   7.6476580e+03
 1.4750201e+00   7.6570714e+03
 1.4797000e+00   7.6856221e+03
 1.4843800e+00   7.6948812e+03
 1.4890600e+00   7.7313533e+03
 1.4937400e+00   7.7397584e+03
 1.4984200e+00   7.7242065e+03
 1.5031000e+00   7.7700694e+03
 1.5077800e+00   7.7910174e+03
 1.5124600e+00   7.8046244e+03
 1.5171400e+00   7.7756280e+03
 1.5218199e+00   7.8014769e+03
 1.5265000e+00   7.7909589e+03
 1.5311800e+00   7.8053742e+03
 1.5358599e+00   7.7772118e+03
 1.5405400e+00   7.8158843e+03
 1.5452200e+00   7.7960563e+03
 1.5499001e+00   7.7898139e+03
 1.5545800e+00   7.7726192e+03
 1.5592600e+00   7.7720264e+03
 1.5639400e+00   7.7618007e+03
 1.5686200e+00   7.7435827e+03
 1.5733000e+00   7.7605829e+03
 1.5779800e+00   7.7529161e+03
 1.5826600e+00   7.7487645e+03
 1.5873400e+00   7.7441652e+03
 1.5920200e+00   7.7443695e+03
 1.5967000e+00   7.7084376e+03
 1.6013800e+00   7.7074828e+03
 1.6060600e+00   7.7310875e+03
 1.6107399e+00   7.7256792e+03
 1.6154200e+00   7.7349808e+03
 1.6201000e+00   7.7156944e+03
 1.6247801e+00   7.7325521e+03
 1.6294600e+00   7.7127776e+03
 1.6341400e+00   7.7005533e+03
 1.6388201e+00   7.7182286e+03
 1.6435000e+00   7.7334844e+03
 1.6481800e+00   7.7076152e+03
 1.6528600e+00   7.7264906e+03
 1.6575400e+00   7.7181435e+03
 1.6622200e+00   7.7173274e+03
 1.6669000e+00   7.7274978e+03
 1.6715800e+00   7.7506626e+03
 1.6762600e+00   7.7359155e+03
 1.6809400e+00   7.7655848e+03
 1.6856200e+00   7.7508567e+03
 1.6903000e+00   7.7041192e+03
 1.6949800e+00   7.7278007e+03
 1.6996599e+00   7.7459737e+03
 1.7043400e+00   7.7223796e+03
 1.7090200e+00   7.7182318e+03
 1.7137001e+00   7.7342955e+03
 1.7183800e+00   7.7498629e+03
 1.7230600e+00   7.7452412e+03
 1.7277400e+00   7.7616993e+03
 1.7324200e+00   7.7642042e+03
 1.7371000e+00   7.7720564e+03
 1.7417800e+00   7.7849939e+03
 1.7464600e+00   7.7951839e+03
 1.7511400e+00   7.8176606e+03
 1.7558200e+00   7.7742700e+03
 1.7605000e+00   7.8248664e+03
 1.7651800e+00   7.8253076e+03
 1.7698600e+00   7.8096963e+03
 1.7745399e+00   7.8347002e+03
 1.7792200e+00   7.8236859e+03
 1.7839000e+00   7.8716941e+03
 1.7885799e+00   7.8432876e+03
 1.7932600e+00   7.8593747e+03
 1.7979400e+00   7.8821516e+03
 1.8026201e+00   7.8989783e+03
 1.8073000e+00   7.9096761e+03
 1.8119800e+00   7.9358301e+03
 1.8166600e+00   7.9166250e+03
 1.8213400e+00   7.9572657e+03
 1.8260200e+00   8.0007177e+03
 1.8307000e+00   8.0110700e+03
 1.8353800e+00   8.0299253e+03
 1.8400600e+00   8.0479957e+03
 1.8447400e+00   8.0523453e+03
 1.8494200e+00   8.0554596e+03
 1.8541000e+00   8.1084881e+03
 1.8587800e+00   8.1140105e+03
 1.8634599e+00   8.1334315e+03
 1.8681400e+00   8.1366281e+03
 1.8728200e+00   8.1610180e+03
 1.8775001e+00   8.1541579e+03
 1.8821800e+00   8.1818262e+03
 1.8868600e+00   8.2112859e+03
 1.8915401e+00   8.2428228e+03
 1.8962200e+00   8.2681536e+03
 1.9009000e+00   8.2760307e+03
 1.9055800e+00   8.3147804e+03
 1.9102600e+00   8.3464471e+03
 1.9149400e+00   8.3642512e+03
 1.9196200e+00   8.3761932e+03
 1.9243000e+00   8.4314379e+03
 1.9289800e+00   8.4340548e+03
 1.9336600e+00   8.4566627e+03
 1.9383399e+00   8.5100411e+03
 1.9430200e+00   8.5015565e+03
 1.9477000e+00   8.5265158e+03
 1.9523799e+00   8.5568609e+03
 1.9570600e+00   8.5751893e+03
 1.9617400e+00   8.5909414e+03
 1.9664201e+00   8.6318385e+03
 1.9711000e+00   8.6444401e+03
 1.9757800e+00   8.6690238e+03
 1.9804600e+00   8.6737028e+03
 1.9851400e+00   8.7017911e+03
 1.9898200e+00   8.7335002e+03
 1.9945000e+00   8.7811705e+03
 1.9991800e+00   8.7711221e+03
 2.0038600e+00   8.8113871e+03
 2.0085399e+00   8.7980147e+03
 2.0132201e+00   8.8568858e+03
 2.0179000e+00   8.8587860e+03
 2.0225799e+00   8.9021162e+03
 2.0272601e+00   8.9239101e+03
 2.0319400e+00   8.9297019e+03
 2.0366199e+00   8.9300487e+03
 2.0413001e+00   8.9597676e+03
 2.0459800e+00   8.9821086e+03
 2.0506599e+00   9.0049337e+03
 2.0553401e+00   9.0476869e+03
 2.0600200e+00   9.0601895e+03
 2.0646999e+00   9.0681202e+03
 2.0693800e+00   9.1108581e+03
 2.0740600e+00   9.1461000e+03
 2.0787399e+00   9.1460920e+03
 2.0834200e+00   9.1988219e+03
 2.0881000e+00   9.2172614e+03
 2.0927801e+00   9.2939346e+03
 2.0974600e+00   9.3040605e+03
 2.1021399e+00   9.3446905e+03
 2.1068201e+00   9.3637831e+03
 2.1115000e+00   9.4062652e+03
 2.1161799e+00   9.4373077e+03
 2.1208601e+00   9.4586322e+03
 2.1255400e+00   9.4785820e+03
 2.1302199e+00   9.4875118e+03
 2.1349001e+00   9.5284768e+03
 2.1395800e+00   9.5480298e+03
 2.1442599e+00   9.6036455e+03
 2.1489401e+00   9.6466809e+03
 2.1536200e+00   9.7043254e+03
 2.1582999e+00   9.7470102e+03
 2.1629801e+00   9.8434164e+03
 2.1676600e+00   9.9259475e+03
 2.1723399e+00   1.0019055e+04
 2.1770201e+00   1.0129858e+04
 2.1817000e+00   1.0257786e+04
 2.1863799e+00   1.0444830e+04
 2.1910601e+00   1.0652766e+04
 2.1957400e+00   1.0966430e+04
 2.2004199e+00   1.1364058e+04
 2.2051001e+00   1.1885024e+04
 2.2097800e+00   1.2651960e+04
 2.2144599e+00   1.3658220e+04
 2.2191401e+00   1.5085294e+04
 2.2238200e+00   1.6803191e+04
 2.2284999e+00   1.9088507e+04
 2.2331800e+00   2.1629289e+04
 2.2378600e+00   2.4217806e+04
 2.2425399e+00   2.6208042e+04
 2.2472200e+00   2.7506106e+04
 2.2519000e+00   2.7421378e+04
 2.2565801e+00   2.6277476e+04
 2.2612600e+00   2.4275726e+04
 2.2659400e+00   2.1583616e+04
 2.2706201e+00   1.8926573e+04
 2.2753000e+00   1.6561493e+04
 2.2799799e+00   1.4815210e+04
 2.2846601e+00   1.3445301e+04
 2.2893400e+00   1.2560425e+04
 2.2940199e+00   1.1943433e+04
 2.2987001e+00   1.1550806e+04
 2.3033800e+00   1.1272299e+04
 2.3080599e+00   1.1112198e+04
 2.3127401e+00   1.0990171e+04
 2.3174200e+00   1.0910288e+04
 2.3220999e+00   1.0876190e+04
 2.3267801e+00   1.0883263e+04
 2.3314600e+00   1.0851299e+04
 2.3361399e+00   1.0843639e+04
 2.3408201e+00   1.0854411e+04
 2.3455000e+00   1.0876389e+04
 2.3501799e+00   1.0855603e+04
 2.3548601e+00   1.0916020e+04
 2.3595400e+00   1.0932531e+04
 2.3642199e+00   1.0947181e+04
 2.3689001e+00   1.0950104e+04
 2.3735800e+00   1.0995637e+04
 2.3782599e+00   1.1011225e+04
 2.3829401e+00   1.1046248e+04
 2.3876200e+00   1.1073735e+04
 2.3922999e+00   1.1116560e+04
 2.3969800e+00   1.1124833e+04
 2.4016600e+00   1.1182643e+04
 2.4063399e+00   1.1188902e+04
 2.4110200e+00   1.1260963e+04
 2.4157000e+00   1.1272183e+04
 2.4203801e+00   1.1318102e+04
 2.4250600e+00   1.1334190e+04
 2.4297400e+00   1.1381307e+04
 2.4344201e+00   1.1427752e+04
 2.4391000e+00   1.1461310e+04
 2.4437799e+00   1.1495996e+04
 2.4484601e+00   1.1532972e+04
 2.4531400e+00   1.1584520e+04
 2.4578199e+00   1.1605099e+04
 2.4625001e+00   1.1639490e+04
 2.4671800e+00   1.1698266e+04
 2.4718599e+00   1.1751539e+04
 2.4765401e+00   1.1751345e+04
 2.4812200e+00   1.1821130e+04
 2.4858999e+00   1.1838679e+04
 2.4905801e+00   1.1860512e+04
 2.4952600e+00   1.1898559e+04
 2.4999399e+00   1.1956591e+04
 2.5046201e+00   1.2012989e+04
 2.5093000e+00   1.2022918e+04
 2.5139799e+00   1.2072572e+04
 2.5186601e+00   1.2111187e+04
 2.5233400e+00   1.2127226e+04
 2.5280199e+00   1.2183298e+04
 2.5327001e+00   1.2201863e+04
 2.5373800e+00   1.2254885e+04
 2.5420599e+00   1.2276504e+04
 2.5467401e+00   1.2304937e+04
 2.5514200e+00   1.2347152e+04
 2.5560999e+00   1.2373584e+04
 2.5607800e+00   1.2409651e+04
 2.5654600e+00   1.2425838e+04
 2.5701399e+00   1.2475805e+04
 2.5748200e+00   1.2520168e+04
 2.5795000e+00   1.2541371e+04
 2.5841801e+00   1.2576251e+04
 2.5888600e+00   1.2617607e+04
 2.5935400e+00   1.2622300e+04
 2.5982201e+00   1.2674622e+04
 2.6029000e+00   1.2686700e+04
 2.6075799e+00   1.2721031e+04
 2.6122601e+00   1.2718315e+04
 2.6169400e+00   1.2771233e+04
 2.6216199e+00   1.2787626e+04
 2.6263001e+00   1.2818591e+04
 2.6309800e+00   1.2840048e+04
 2.6356599e+00   1.2846790e+04
 2.6403401e+00   1.2857611e+04
 2.6450200e+00   1.2872958e+04
 2.6496999e+00   1.2883583e+04
 2.6543801e+00   1.2912209e+04
 2.6590600e+00   1.2915067e+04
 2.6637399e+00   1.2962876e+04
 2.6684201e+00   1.2965510e+04
 2.6731000e+00   1.2987820e+04
 2.6777799e+00   1.2998724e+04
 2.6824601e+00   1.2990721e+04
 2.6871400e+00   1.3023381e+04
 2.6918199e+00   1.3029685e+04
 2.6965001e+00   1.3053712e+04
 2.7011800e+00   1.3053656e+04
 2.7058599e+00   1.3067535e+04
 2.7105401e+00   1.3086556e+04
 2.7152200e+00   1.3077078e+04
 2.7198999e+00   1.3097814e+04
 2.7245800e+00   1.3085150e+04
 2.7292600e+00   1.3099321e+04
 2.7339399e+00   1.3101585e+04
 2.7386200e+00   1.3072889e+04
 2.7433000e+00   1.3096602e+04
 2.7479801e+00   1.3055775e+04
 2.7526600e+00   1.3077319e+04
 2.7573400e+00   1.3044803e+04
 2.7620201e+00   1.3050874e+04
 2.7667000e+00   1.3054007e+04
 2.7713799e+00   1.3029941e+04
 2.7760601e+00   1.3036102e+04
 2.7807400e+00   1.3031088e+04
 2.7854199e+00   1.2998666e+04
 2.7901001e+00   1.3013143e+04
 2.7947800e+00   1.3005048e+04
 2.7994599e+00   1.3002747e+04
 2.8041401e+00   1.2984720e+04
 2.8088200e+00   1.2970836e+04
 2.8134999e+00   1.2947572e+04
 2.8181801e+00   1.2952539e+04
 2.8228600e+00   1.2910053e+04
 2.8275399e+00   1.2908000e+04
 2.8322201e+00   1.2892915e+04
 2.8369000e+00   1.2865488e+04
 2.8415799e+00   1.2875135e+04
 2.8462601e+00   1.2864395e+04
 2.8509400e+00   1.2833262e+04
 2.8556199e+00   1.2842682e+04
 2.8603001e+00   1.2804508e+04
 2.8649800e+00   1.2789045e+04
 2.8696599e+00   1.2770023e+04
 2.8743401e+00   1.2752616e+04
 2.8790200e+00   1.2731053e+04
 2.8836999e+00   1.2725296e+04
 2.8883801e+00   1.2681315e+04
 2.8930600e+00   1.2665015e+04
 2.8977399e+00   1.2642924e+04
 2.9024200e+00   1.2630872e+04
 2.9071000e+00   1.2610399e+04
 2.9117801e+00   1.2607044e+04
 2.9164600e+00   1.2589843e+04
 2.9211400e+00   1.2565487e+04
 2.9258201e+00   1.2545517e+04
 2.9305000e+00   1.2496624e+04
 2.9351799e+00   1.2517131e+04
 2.9398601e+00   1.2467736e+04
 2.9445400e+00   1.2472613e+04
 2.9492199e+00   1.2426354e+04
 2.9539001e+00   1.2415625e+04
 2.9585800e+00   1.2402104e+04
 2.9632599e+00   1.2356988e+04
 2.9679401e+00   1.2338272e+04
 2.9726200e+00   1.2330061e+04
 2.9772999e+00   1.2279478e+04
 2.9819801e+00   1.2275891e+04
 2.9866600e+00   1.2239429e+04
 2.9913399e+00   1.2212901e+04
 2.9960201e+00   1.2184410e+04
 3.0007000e+00   1.2162013e+04
 3.0053799e+00   1.2131933e+04
 3.0100601e+00   1.2118602e+04
 3.0147400e+00   1.2098697e+04
 3.0194199e+00   1.2039635e+04
 3.0241001e+00   1.2040672e+04
 3.0287800e+00   1.2011898e+04
 3.0334599e+00   1.1976110e+04
 3.0381401e+00   1.1940273e+04
 3.0428200e+00   1.1922332e+04
 3.0474999e+00   1.1883811e+04
 3.0521801e+00   1.1876433e+04
 3.0568600e+00   1.1806988e+04
 3.0615399e+00   1.1789879e+04
 3.0662200e+00   1.1763197e+04
 3.0709000e+00   1.1748709e+04
 3.0755799e+00   1.1713625e+04
 3.0802600e+00   1.1705274e+04
 3.0849400e+00   1.1662187e+04
 3.0896201e+00   1.1644125e+04
 3.0943000e+00   1.1626307e+04
 3.0989799e+00   1.1607460e+04
 3.1036601e+00   1.1544802e+04
 3.1083400e+00   1.1547206e+04
 3.1130199e+00   1.1508555e+04
 3.1177001e+00   1.1512620e+04
 3.1223800e+00   1.1479435e+04
 3.1270599e+00   1.1442132e+04
 3.1317401e+00   1.1447785e+04
 3.1364200e+00   1.1426583e+04
 3.1410999e+00   1.1399925e+04
 3.1457801e+00   1.1393378e+04
 3.1504600e+00   1.1376732e+04
 3.1551399e+00   1.1349922e+04
 3.1598201e+00   1.1317471e+04
 3.1645000e+00   1.1298203e+04
 3.1691799e+00   1.1291105e+04
 3.1738601e+00   1.1254156e+04
 3.1785400e+00   1.1230798e+04
 3.1832199e+00   1.1208900e+04
 3.1879001e+00   1.1227635e+04
 3.1925800e+00   1.1193017e+04
 3.1972599e+00   1.1194972e+04
 3.2019401e+00   1.1160807e+04
 3.2066200e+00   1.1167576e+04
 3.2112999e+00   1.1117177e+04
 3.2159801e+00   1.1120948e+04
 3.2206600e+00   1.1089013e+04
 3.2253399e+00   1.1095094e+04
 3.2300200e+00   1.1059777e+04
 3.2347000e+00   1.1070906e+04
 3.2393799e+00   1.1018824e+04
 3.2440600e+00   1.0998846e+04
 3.2487400e+00   1.1022232e+04
 3.2534201e+00   1.0974014e+04
 3.2581000e+00   1.0987139e+04
 3.2627800e+00   1.0988274e+04
 3.2674601e+00   1.0943573e+04
 3.2721400e+00   1.0949317e+04
 3.2768199e+00   1.0927755e+04
 3.2815001e+00   1.0920230e+04
 3.2861800e+00   1.0910983e+04
 3.2908599e+00   1.0917386e+04
 3.2955401e+00   1.0903377e+04
 3.3002200e+00   1.0895768e+04
 3.3048999e+00   1.0884075e+04
 3.3095801e+00   1.0889863e+04
 3.3142600e+00   1.0897427e+04
 3.3189399e+00   1.0867305e+04
 3.3236201e+00   1.0879143e+04
 3.3283000e+00   1.0863733e+04
 3.3329799e+00   1.0849261e+04
 3.3376601e+00   1.0850850e+04
 3.3423400e+00   1.0835691e+04
 3.3470199e+00   1.0819042e+04
 3.3517001e+00   1.0843294e+04
 3.3563800e+00   1.0799223e+04
 3.3610599e+00   1.0820907e+04
 3.3657401e+00   1.0808713e+04
 3.3704200e+00   1.0826425e+04
 3.3750999e+00   1.0806159e+04
 3.3797801e+00   1.0823129e+04
 3.3844600e+00   1.0790284e+04
 3.3891399e+00   1.0799750e+04
 3.3938200e+00   1.0785605e+04
 3.3985000e+00   1.0811089e+04
 3.4031799e+00   1.0800270e+04
 3.4078600e+00   1.0771870e+04
 3.4125400e+00   1.0812508e+04
 3.4172201e+00   1.0788159e+04
 3.4219000e+00   1.0794401e+04
 3.4265800e+00   1.0804504e+04
 3.4312601e+00   1.0784326e+04
 3.4359400e+00   1.0811465e+04
 3.4406199e+00   1.0814891e+04
 3.4453001e+00   1.0806607e+04
 3.4499800e+00   1.0833744e+04
 3.4546599e+00   1.0832996e+04
 3.4593401e+00   1.0797412e+04
 3.4640200e+00   1.0828215e+04
 3.4686999e+00   1.0802327e+04
 3.4733801e+00   1.0804672e+04
 3.4780600e+00   1.0810947e+04
 3.4827399e+00   1.0823227e+04
 3.4874201e+00   1.0807289e+04
 3.4921000e+00   1.0803916e+04
 3.4967799e+00   1.0783883e+04
 3.5014601e+00   1.0799114e+04
 3.5061400e+00   1.0782631e+04
 3.5108199e+00   1.0766872e+04
 3.5155001e+00   1.0789695e+04
 3.5201800e+00   1.0773368e+04
 3.5248599e+00   1.0774641e+04
 3.5295401e+00   1.0797685e+04
 3.5342200e+00   1.0781582e+04
 3.5388999e+00   1.0779250e+04
 3.5435801e+00   1.0820821e+04
 3.5482600e+00   1.0734983e+04
 3.5529399e+00   1.0796741e+04
 3.5576200e+00   1.0763334e+04
 3.5623000e+00   1.0736266e+04
 3.5669799e+00   1.0766851e+04
 3.5716600e+00   1.0766833e+04
 3.5763400e+00   1.0756625e+04
 3.5810201e+00   1.0799528e+04
 3.5857000e+00   1.0738582e+04
 3.5903800e+00   1.0772096e+04
 3.5950601e+00   1.0793532e+04
 3.5997400e+00   1.0735289e+04
 3.6044199e+00   1.0775345e+04
 3.6091001e+00   1.0741150e+04
 3.6137800e+00   1.0715062e+04
 3.6184599e+00   1.0790258e+04
 3.6231401e+00   1.0725140e+04
 3.6278200e+00   1.0722358e+04
 3.6324999e+00   1.0750925e+04
 3.6371801e+00   1.0677898e+04
 3.6418600e+00   1.0745006e+04
 3.6465399e+00   1.0706558e+04
 3.6512201e+00   1.0638681e+04
 3.6559000e+00   1.0751322e+04
 3.6605799e+00   1.0658895e+04
 3.6652601e+00   1.0641826e+04
 3.6699400e+00   1.0684849e+04
 3.6746199e+00   1.0600915e+04
 3.6793001e+00   1.0575977e+04
 3.6839800e+00   1.0651085e+04
 3.6886599e+00   1.0517254e+04
 3.6933401e+00   1.0603299e+04
 3.6980200e+00   1.0516786e+04
 3.7026999e+00   1.0476757e+04
 3.7073801e+00   1.0554319e+04
 3.7120600e+00   1.0473207e+04
 3.7167399e+00   1.0425794e+04
 3.7214200e+00   1.0438519e+04
 3.7261000e+00   1.0312957e+04
 3.7307799e+00   1.0320401e+04
 3.7354600e+00   1.0263383e+04
 3.7401400e+00   1.0177724e+04
 3.7448201e+00   1.0183397e+04
 3.7495000e+00   1.0155347e+04
 3.7541800e+00   1.0005371e+04
 3.7588601e+00   1.0108383e+04
 3.7635400e+00   9.9486309e+03
 3.7682199e+00   9.9763971e+03
 3.7729001e+00   9.9156678e+03
 3.7775800e+00   9.8730905e+03
 3.7822599e+00   9.8196180e+03
 3.7869401e+00   9.8801568e+03
 3.7916200e+00   9.6851132e+03
 3.7962999e+00   9.8564542e+03
 3.8009801e+00   9.6677015e+03
 3.8056600e+00   9.6466106e+03
 3.8103399e+00   9.7150864e+03
 3.8150201e+00   9.6086713e+03
 3.8197000e+00   9.6028735e+03
 3.8243799e+00   9.6925575e+03
 3.8290601e+00   9.5459813e+03
 3.8337400e+00   9.5721972e+03
 3.8384199e+00   9.5909553e+03
 3.8431001e+00   9.4166485e+03
 3.8477800e+00   9.5864058e+03
 3.8524599e+00   9.4419516e+03
 3.8571401e+00   9.4326084e+03
 3.8618200e+00   9.4378764e+03
 3.8664999e+00   9.3316609e+03
 3.8711801e+00   9.3509099e+03
 3.8758600e+00   9.3088605e+03
 3.8805399e+00   9.2033590e+03
 3.8852201e+00   9.3045472e+03
 3.8899000e+00   9.1710245e+03
 3.8945799e+00   9.1151118e+03
 3.8992600e+00   9.0955153e+03
 3.9039400e+00   9.0950115e+03
 3.9086201e+00   9.0146392e+03
 3.9133000e+00   9.0173167e+03
 3.9179800e+00   8.9705168e+03
 3.9226601e+00   8.9722071e+03
 3.9273400e+00   8.9479930e+03
 3.9320199e+00   8.9081174e+03
 3.9367001e+00   8.8900676e+03
 3.9413800e+00   8.8799993e+03
 3.9460599e+00   8.8228873e+03
 3.9507401e+00   8.8700133e+03
 3.9554200e+00   8.8268032e+03
 3.9600999e+00   8.7738946e+03
 3.9647801e+00   8.7488312e+03
 3.9694600e+00   8.7299238e+03
 3.9741399e+00   8.6704189e+03
 3.9788201e+00   8.6850826e+03
 3.9835000e+00   8.6715531e+03
 3.9881799e+00   8.5972361e+03
 3.9928601e+00   8.5727402e+03
 3.9975400e+00   8.5355339e+03
 4.0022202e+00   8.5344602e+03
 4.0068998e+00   8.4978851e+03
 4.0115800e+00   8.5389746e+03
 4.0162601e+00   8.4783788e+03
 4.0209398e+00   8.4206592e+03
 4.0256200e+00   8.4097221e+03
 4.0303001e+00   8.4440235e+03
 4.0349798e+00   8.3625029e+03
 4.0396600e+00   8.4478801e+03
 4.0443401e+00   8.3148841e+03
 4.0490198e+00   8.3450551e+03
 4.0537000e+00   8.3614296e+03
 4.0583801e+00   8.2897042e+03
 4.0630598e+00   8.3130369e+03
 4.0677400e+00   8.3118221e+03
 4.0724201e+00   8.2106432e+03
 4.0770998e+00   8.2489411e+03
 4.0817800e+00   8.1921745e+03
 4.0864601e+00   8.1987023e+03
 4.0911398e+00   8.2733459e+03
 4.0958200e+00   8.1311566e+03
 4.1005001e+00   8.1756644e+03
 4.1051798e+00   8.1652230e+03
 4.1098599e+00   8.1269223e+03
 4.1145401e+00   8.1392856e+03
 4.1192198e+00   8.1206521e+03
 4.1238999e+00   8.0244261e+03
 4.1285801e+00   8.1514303e+03
 4.1332598e+00   8.0119702e+03
 4.1379399e+00   8.0580475e+03
 4.1426201e+00   8.0376253e+03
 4.1472998e+00   7.9648955e+03
 4.1519799e+00   8.0288649e+03
 4.1566601e+00   8.0028555e+03
 4.1613402e+00   7.9136323e+03
 4.1660199e+00   8.0206637e+03
 4.1707001e+00   7.8852088e+03
 4.1753802e+00   7.8831395e+03
 4.1800599e+00   7.9287336e+03
 4.1847401e+00   7.8214822e+03
 4.1894202e+00   7.8778088e+03
 4.1940999e+00   7.8607906e+03
 4.1987801e+00   7.8015734e+03
 4.2034602e+00   7.8696573e+03
 4.2081399e+00   7.8298227e+03
 4.2128201e+00   7.7953391e+03
 4.2175002e+00   7.9165375e+03
 4.2221799e+00   7.8013126e+03
 4.2268600e+00   7.8267240e+03
 4.2315402e+00   7.8604905e+03
 4.2362199e+00   7.7198173e+03
 4.2409000e+00   7.7921999e+03
 4.2455802e+00   7.8066460e+03
 4.2502599e+00   7.7005658e+03
 4.2549400e+00   7.7881654e+03
 4.2596202e+00   7.7575740e+03
 4.2642999e+00   7.7922377e+03
 4.2689800e+00   7.8064862e+03
 4.2736602e+00   7.7878814e+03
 4.2783399e+00   7.7657309e+03
 4.2830200e+00   7.8227509e+03
 4.2877002e+00   7.7354374e+03
 4.2923799e+00   7.7823916e+03
 4.2970600e+00   7.7575227e+03
 4.3017402e+00   7.6970716e+03
 4.3064198e+00   7.7418719e+03
 4.3111000e+00   7.6886355e+03
 4.3157802e+00   7.7352243e+03
 4.3204598e+00   7.7377579e+03
 4.3251400e+00   7.7003921e+03
 4.3298202e+00   7.7317110e+03
 4.3344998e+00   7.6827513e+03
 4.3391800e+00   7.6609693e+03
 4.3438601e+00   7.7188888e+03
 4.3485398e+00   7.6904014e+03
 4.3532200e+00   7.6940944e+03
 4.3579001e+00   7.6938591e+03
 4.3625798e+00   7.6363334e+03
 4.3672600e+00   7.6444178e+03
 4.3719401e+00   7.5949772e+03
 4.3766198e+00   7.6199654e+03
 4.3813000e+00   7.5917514e+03
 4.3859801e+00   7.6132679e+03
 4.3906598e+00   7.5643076e+03
 4.3953400e+00   7.6686990e+03
 4.4000201e+00   7.5716882e+03
 4.4046998e+00   7.6693627e+03
 4.4093800e+00   7.5966874e+03
 4.4140601e+00   7.6327134e+03
 4.4187398e+00   7.6578113e+03
 4.4234200e+00   7.6625416e+03
 4.4281001e+00   7.6497297e+03
 4.4327798e+00   7.7682791e+03
 4.4374599e+00   7.7263390e+03
 4.4421401e+00   7.7854320e+03
 4.4468198e+00   7.8628751e+03
 4.4514999e+00   7.8750486e+03
 4.4561801e+00   8.0128530e+03
 4.4608598e+00   8.1741353e+03
 4.4655399e+00   8.3063613e+03
 4.4702201e+00   8.5669816e+03
 4.4748998e+00   8.8357855e+03
 4.4795799e+00   9.1258098e+03
 4.4842601e+00   9.5121559e+03
 4.4889398e+00   9.8395111e+03
 4.4936199e+00   1.0145662e+04
 4.4983001e+00   1.0319982e+04
 4.5029802e+00   1.0373979e+04
 4.5076599e+00   1.0260929e+04
 4.5123401e+00   1.0011006e+04
 4.5170202e+00   9.5720849e+03
 4.5216999e+00   9.1842063e+03
 4.5263801e+00   8.7079828e+03
 4.5310602e+00   8.3031549e+03
 4.5357399e+00   7.9875619e+03
 4.5404201e+00   7.7153185e+03
 4.5451002e+00   7.5193664e+03
 4.5497799e+00   7.3849854e+03
 4.5544600e+00   7.2512386e+03
 4.5591402e+00   7.2052215e+03
 4.5638199e+00   7.1335049e+03
 4.5685000e+00   7.0268578e+03
 4.5731802e+00   7.0357954e+03
 4.5778599e+00   7.0035439e+03
 4.5825400e+00   6.9746377e+03
 4.5872202e+00   6.9492410e+03
 4.5918999e+00   6.9021153e+03
 4.5965800e+00   6.8893963e+03
 4.6012602e+00   6.8681701e+03
 4.6059399e+00   6.8659660e+03
 4.6106200e+00   6.8488981e+03
 4.6153002e+00   6.8354904e+03
 4.6199799e+00   6.7997162e+03
 4.6246600e+00   6.7816434e+03
 4.6293402e+00   6.7711517e+03
 4.6340199e+00   6.7769973e+03
 4.6387000e+00   6.7569081e+03
 4.6433802e+00   6.7396897e+03
 4.6480598e+00   6.7466378e+03
 4.6527400e+00   6.7279295e+03
 4.6574202e+00   6.7064228e+03
 4.6620998e+00   6.7463694e+03
 4.6667800e+00   6.7373135e+03
 4.6714602e+00   6.7601995e+03
 4.6761398e+00   6.7877927e+03
 4.6808200e+00   6.8495029e+03
 4.6855001e+00   6.9229163e+03
 4.6901798e+00   7.0704197e+03
 4.6948600e+00   7.2411945e+03
 4.6995401e+00   7.5209539e+03
 4.7042198e+00   7.8672863e+03
 4.7089000e+00   8.3013283e+03
 4.7135801e+00   8.8246375e+03
 4.7182598e+00   9.3043419e+03
 4.7229400e+00   9.7475044e+03
 4.7276201e+00   9.9693160e+03
 4.7322998e+00   1.0069942e+04
 4.7369800e+00   9.9286046e+03
 4.7416601e+00   9.6469800e+03
 4.7463398e+00   9.2424504e+03
 4.7510200e+00   8.8134131e+03
 4.7557001e+00   8.3700380e+03
 4.7603798e+00   7.9622928e+03
 4.7650599e+00   7.6392717e+03
 4.7697401e+00   7.3478662e+03
 4.7744198e+00   7.1394483e+03
 4.7790999e+00   6.9656572e+03
 4.7837801e+00   6.8227978e+03
 4.7884598e+00   6.7501851e+03
 4.7931399e+00   6.6465917e+03
 4.7978201e+00   6.5922216e+03
 4.8024998e+00   6.5672547e+03
 4.8071799e+00   6.5318651e+03
 4.8118601e+00   6.5048596e+03
 4.8165398e+00   6.4807109e+03
 4.8212199e+00   6.4663362e+03
 4.8259001e+00   6.4765194e+03
 4.8305802e+00   6.4814560e+03
 4.8352599e+00   6.4898416e+03
 4.8399401e+00   6.5465079e+03
 4.8446202e+00   6.5646925e+03
 4.8492999e+00   6.6459223e+03
 4.8539801e+00   6.7483124e+03
 4.8586602e+00   6.9161426e+03
 4.8633399e+00   7.1535460e+03
 4.8680201e+00   7.5004258e+03
 4.8727002e+00   7.9367675e+03
 4.8773799e+00   8.5838542e+03
 4.8820601e+00   9.3400896e+03
 4.8867402e+00   1.0225533e+04
 4.8914199e+00   1.1115902e+04
 4.8961000e+00   1.1961916e+04
 4.9007802e+00   1.2500354e+04
 4.9054599e+00   1.2715267e+04
 4.9101400e+00   1.2597228e+04
 4.9148202e+00   1.2100088e+04
 4.9194999e+00   1.1409994e+04
 4.9241800e+00   1.0560902e+04
 4.9288602e+00   9.7536938e+03
 4.9335399e+00   8.9665173e+03
 4.9382200e+00   8.3389702e+03
 4.9429002e+00   7.7700029e+03
 4.9475799e+00   7.4081990e+03
 4.9522600e+00   7.0664193e+03
 4.9569402e+00   6.8552681e+03
 4.9616199e+00   6.6801802e+03
 4.9663000e+00   6.5546638e+03
 4.9709802e+00   6.4505313e+03
 4.9756598e+00   6.3934408e+03
 4.9803400e+00   6.3329427e+03
 4.9850202e+00   6.2931231e+03
 4.9896998e+00   6.2495908e+03
 4.9943800e+00   6.2261486e+03
 4.9990602e+00   6.2046138e+03
 5.0037398e+00   6.1826945e+03
 5.0084200e+00   6.1816996e+03
 5.0131001e+00   6.1548186e+03
 5.0177798e+00   6.1534221e+03
 5.0224600e+00   6.1490608e+03
 5.0271401e+00   6.1225614e+03
 5.0318198e+00   6.1156225e+03
 5.0365000e+00   6.1351764e+03
 5.0411801e+00   6.1096281e+03
 5.0458598e+00   6.1203921e+03
 5.0505400e+00   6.1243318e+03
 5.0552201e+00   6.1718034e+03
 5.0598998e+00   6.1697904e+03
 5.0645800e+00   6.2104120e+03
 5.0692601e+00   6.2464339e+03
 5.0739398e+00   6.3008783e+03
 5.0786200e+00   6.3941252e+03
 5.0833001e+00   6.5429260e+03
 5.0879798e+00   6.6482085e+03
 5.0926600e+00   6.8095198e+03
 5.0973401e+00   6.9003276e+03
 5.1020198e+00   7.3419425e+03
 5.1066999e+00   7.6912637e+03
 5.1113801e+00   7.7796634e+03
 5.1160598e+00   7.6005177e+03
 5.1207399e+00   7.8929807e+03
 5.1254201e+00   8.4584651e+03
 5.1300998e+00   9.9043514e+03
 5.1347799e+00   1.0995955e+04
 5.1394601e+00   1.2422661e+04
 5.1441398e+00   1.2979810e+04
 5.1488199e+00   1.3000042e+04
 5.1535001e+00   1.1965695e+04
 5.1581802e+00   1.1069329e+04
 5.1628599e+00   9.7515766e+03
 5.1675401e+00   8.6472866e+03
 5.1722202e+00   7.6890724e+03
 5.1768999e+00   7.0461239e+03
 5.1815801e+00   6.6241003e+03
 5.1862602e+00   6.5237948e+03
 5.1909399e+00   6.6257485e+03
 5.1956201e+00   6.5721157e+03
 5.2003002e+00   6.4674790e+03
 5.2049799e+00   6.2858740e+03
 5.2096601e+00   6.2543265e+03
 5.2143402e+00   6.2139359e+03
 5.2190199e+00   6.1635310e+03
 5.2237000e+00   6.1050143e+03
 5.2283802e+00   6.0436630e+03
 5.2330599e+00   6.0404592e+03
 5.2377400e+00   6.0005249e+03
 5.2424202e+00   5.9634131e+03
 5.2470999e+00   5.9498001e+03
 5.2517800e+00   5.9176481e+03
 5.2564602e+00   5.9034746e+03
 5.2611399e+00   5.8965136e+03
 5.2658200e+00   5.8588031e+03
 5.2705002e+00   5.8751910e+03
 5.2751799e+00   5.8514117e+03
 5.2798600e+00   5.8394015e+03
 5.2845402e+00   5.8213309e+03
 5.2892199e+00   5.8150583e+03
 5.2939000e+00   5.8208967e+03
 5.2985802e+00   5.8225910e+03
 5.3032598e+00   5.7960383e+03
 5.3079400e+00   5.8009424e+03
 5.3126202e+00   5.7980416e+03
 5.3172998e+00   5.7964947e+03
 5.3219800e+00   5.7904907e+03
 5.3266602e+00   5.7858999e+03
 5.3313398e+00   5.7705566e+03
 5.3360200e+00   5.7681968e+03
 5.3407001e+00   5.7689624e+03
 5.3453798e+00   5.7848897e+03
 5.3500600e+00   5.7648447e+03
 5.3547401e+00   5.7630188e+03
 5.3594198e+00   5.7644389e+03
 5.3641000e+00   5.7596526e+03
 5.3687801e+00   5.7612058e+03
 5.3734598e+00   5.7525769e+03
 5.3781400e+00   5.7620066e+03
 5.3828201e+00   5.7616349e+03
 5.3874998e+00   5.7509890e+03
 5.3921800e+00   5.7591162e+03
 5.3968601e+00   5.7777785e+03
 5.4015398e+00   5.7704014e+03
 5.4062200e+00   5.7928167e+03
 5.4109001e+00   5.7853742e+03
 5.4155798e+00   5.8054723e+03
 5.4202600e+00   5.8207330e+03
 5.4249401e+00   5.8196244e+03
 5.4296198e+00   5.8393494e+03
 5.4342999e+00   5.8693342e+03
 5.4389801e+00   5.8696070e+03
 5.4436598e+00   5.8993656e+03
 5.4483399e+00   5.9489837e+03
 5.4530201e+00   5.9839651e+03
 5.4576998e+00   6.0530050e+03
 5.4623799e+00   6.0782324e+03
 5.4670601e+00   6.1539754e+03
 5.4717398e+00   6.2370586e+03
 5.4764199e+00   6.3493922e+03
 5.4811001e+00   6.5277043e+03
 5.4857798e+00   6.6764846e+03
 5.4904599e+00   6.9217924e+03
 5.4951401e+00   7.2276421e+03
 5.4998202e+00   7.6554474e+03
 5.5044999e+00   8.2853588e+03
 5.5091801e+00   9.0957328e+03
 5.5138602e+00   1.0247720e+04
 5.5185399e+00   1.1774561e+04
 5.5232201e+00   1.3787961e+04
 5.5279002e+00   1.6246543e+04
 5.5325799e+00   1.9188385e+04
 5.5372601e+00   2.2223510e+04
 5.5419402e+00   2.5225183e+04
 5.5466199e+00   2.7433714e+04
 5.5513000e+00   2.8643106e+04
 5.5559802e+00   2.8749553e+04
 5.5606599e+00   2.7476964e+04
 5.5653400e+00   2.5310084e+04
 5.5700202e+00   2.2529518e+04
 5.5746999e+00   1.9594753e+04
 5.5793800e+00   1.6773786e+04
 5.5840602e+00   1.4343551e+04
 5.5887399e+00   1.2322305e+04
 5.5934200e+00   1.0780643e+04
 5.5981002e+00   9.5479670e+03
 5.6027799e+00   8.6416629e+03
 5.6074600e+00   7.9629614e+03
 5.6121402e+00   7.4869275e+03
 5.6168199e+00   7.0697685e+03
 5.6215000e+00   6.8151478e+03
 5.6261802e+00   6.5921245e+03
 5.6308599e+00   6.4176781e+03
 5.6355400e+00   6.2860587e+03
 5.6402202e+00   6.1945389e+03
 5.6448998e+00   6.1085481e+03
 5.6495800e+00   6.0591118e+03
 5.6542602e+00   5.9920381e+03
 5.6589398e+00   5.9500485e+03
 5.6636200e+00   5.9044917e+03
 5.6683002e+00   5.8757525e+03
 5.6729798e+00   5.8609076e+03
 5.6776600e+00   5.8268950e+03
 5.6823401e+00   5.7973974e+03
 5.6870198e+00   5.7977223e+03
 5.6917000e+00   5.7723450e+03
 5.6963801e+00   5.7583468e+03
 5.7010598e+00   5.7429522e+03
 5.7057400e+00   5.7353033e+03
 5.7104201e+00   5.7401818e+03
 5.7150998e+00   5.7208365e+03
 5.7197800e+00   5.7375633e+03
 5.7244601e+00   5.7330834e+03
 5.7291398e+00   5.7205024e+03
 5.7338200e+00   5.7317892e+03
 5.7385001e+00   5.7418388e+03
 5.7431798e+00   5.7237375e+03
 5.7478600e+00   5.7525669e+03
 5.7525401e+00   5.7634278e+03
 5.7572198e+00   5.7740772e+03
 5.7618999e+00   5.7727314e+03
 5.7665801e+00   5.7668211e+03
 5.7712598e+00   5.7561848e+03
 5.7759399e+00   5.7608744e+03
 5.7806201e+00   5.7432545e+03
 5.7852998e+00   5.7404770e+03
 5.7899799e+00   5.7168157e+03
 5.7946601e+00   5.7171054e+03
 5.7993398e+00   5.7231842e+03
 5.8040199e+00   5.6994698e+03
 5.8087001e+00   5.7036134e+03
 5.8133798e+00   5.6907391e+03
 5.8180599e+00   5.6882062e+03
 5.8227401e+00   5.6730697e+03
 5.8274202e+00   5.6940045e+03
 5.8320999e+00   5.6655406e+03
 5.8367801e+00   5.6910073e+03
 5.8414602e+00   5.6598812e+03
 5.8461399e+00   5.6632105e+03
 5.8508201e+00   5.6851891e+03
 5.8555002e+00   5.6966312e+03
 5.8601799e+00   5.6894029e+03
 5.8648601e+00   5.7210460e+03
 5.8695402e+00   5.7172381e+03
 5.8742199e+00   5.7420460e+03
 5.8789001e+00   5.7574837e+03
 5.8835802e+00   5.7917443e+03
 5.8882599e+00   5.8278347e+03
 5.8929400e+00   5.8440623e+03
 5.8976202e+00   5.9077775e+03
 5.9022999e+00   5.9436134e+03
 5.9069800e+00   6.0658321e+03
 5.9116602e+00   6.2483311e+03
 5.9163399e+00   6.3888789e+03
 5.9210200e+00   6.5661797e+03
 5.9257002e+00   6.6021014e+03
 5.9303799e+00   6.8064884e+03
 5.9350600e+00   7.3230030e+03
 5.9397402e+00   7.5604069e+03
 5.9444199e+00   7.6710345e+03
 5.9491000e+00   7.4892134e+03
 5.9537802e+00   7.3047159e+03
 5.9584599e+00   6.9141846e+03
 5.9631400e+00   6.7641429e+03
 5.9678202e+00   6.7499531e+03
 5.9724998e+00   6.6640937e+03
 5.9771800e+00   6.5789967e+03
 5.9818602e+00   6.5089705e+03
 5.9865398e+00   6.5121904e+03
 5.9912200e+00   6.5062790e+03
 5.9959002e+00   6.4640728e+03
 6.0005798e+00   6.4059552e+03
 6.0052600e+00   6.3059959e+03
 6.0099401e+00   6.2232302e+03
 6.0146198e+00   6.1452362e+03
 6.0193000e+00   6.0323421e+03
 6.0239801e+00   6.0026282e+03
 6.0286598e+00   5.9117986e+03
 6.0333400e+00   5.8699185e+03
 6.0380201e+00   5.8438598e+03
 6.0426998e+00   5.7970357e+03
 6.0473800e+00   5.7903655e+03
 6.0520601e+00   5.7975879e+03
 6.0567398e+00   5.7523395e+03
 6.0614200e+00   5.7796792e+03
 6.0661001e+00   5.7523103e+03
 6.0707798e+00   5.7400817e+03
 6.0754600e+00   5.7540325e+03
 6.0801401e+00   5.7547310e+03
 6.0848198e+00   5.7322435e+03
 6.0895000e+00   5.7498630e+03
 6.0941801e+00   5.7278145e+03
 6.0988598e+00   5.7625947e+03
 6.1035399e+00   5.7436132e+03
 6.1082201e+00   5.7282720e+03
 6.1128998e+00   5.7608170e+03
 6.1175799e+00   5.7453527e+03
 6.1222601e+00   5.7384882e+03
 6.1269398e+00   5.7455423e+03
 6.1316199e+00   5.7401295e+03
 6.1363001e+00   5.7440632e+03
 6.1409798e+00   5.7585911e+03
 6.1456599e+00   5.7324123e+03
 6.1503401e+00   5.7546235e+03
 6.1550202e+00   5.7533745e+03
 6.1596999e+00   5.7594988e+03
 6.1643801e+00   5.7691826e+03
 6.1690602e+00   5.7699304e+03
 6.1737399e+00   5.7686021e+03
 6.1784201e+00   5.7826700e+03
 6.1831002e+00   5.7548006e+03
 6.1877799e+00   5.7834879e+03
 6.1924601e+00   5.7874594e+03
 6.1971402e+00   5.7713107e+03
 6.2018199e+00   5.7881028e+03
 6.2065001e+00   5.7900242e+03
 6.2111802e+00   5.7972620e+03
 6.2158599e+00   5.8081812e+03
 6.2205400e+00   5.7847105e+03
 6.2252202e+00   5.8147741e+03
 6.2298999e+00   5.8193594e+03
 6.2345800e+00   5.8050083e+03
 6.2392602e+00   5.8345419e+03
 6.2439399e+00   5.8212127e+03
 6.2486200e+00   5.8197148e+03
 6.2533002e+00   5.8274067e+03
 6.2579799e+00   5.8246944e+03
 6.2626600e+00   5.8343044e+03
 6.2673402e+00   5.8362388e+03
 6.2720199e+00   5.8180612e+03
 6.2767000e+00   5.8673558e+03
 6.2813802e+00   5.8423715e+03
 6.2860599e+00   5.8457679e+03
 6.2907400e+00   5.8543741e+03
 6.2954202e+00   5.8553876e+03
 6.3000998e+00   5.8473242e+03
 6.3047800e+00   5.8843215e+03
 6.3094602e+00   5.8507348e+03
 6.3141398e+00   5.8847855e+03
 6.3188200e+00   5.8762882e+03
 6.3235002e+00   5.8788672e+03
 6.3281798e+00   5.9141107e+03
 6.3328600e+00   5.9019770e+03
 6.3375401e+00   5.9176204e+03
 6.3422198e+00   5.9085649e+03
 6.3469000e+00   5.8976889e+03
 6.3515801e+00   5.9091553e+03
 6.3562598e+00   5.9362357e+03
 6.3609400e+00   5.9033690e+03
 6.3656201e+00   5.9302309e+03
 6.3702998e+00   5.8953276e+03
 6.3749800e+00   5.9111436e+03
 6.3796601e+00   5.9042944e+03
 6.3843398e+00   5.9320277e+03
 6.3890200e+00   5.9214683e+03
 6.3937001e+00   5.9455243e+03
 6.3983798e+00   5.9069501e+03
 6.4030600e+00   5.9429903e+03
 6.4077401e+00   5.9521965e+03
 6.4124198e+00   5.9501485e+03
 6.4171000e+00   5.9766254e+03
 6.4217801e+00   5.9664017e+03
 6.4264598e+00   5.9559647e+03
 6.4311399e+00   5.9686819e+03
 6.4358201e+00   5.9636285e+03
 6.4404998e+00   5.9702624e+03
 6.4451799e+00   6.0052045e+03
 6.4498601e+00   5.9626488e+03
 6.4545398e+00   5.9796133e+03
 6.4592199e+00   5.9643746e+03
 6.4639001e+00   5.9776344e+03
 6.4685798e+00   5.9928638e+03
 6.4732599e+00   5.9690445e+03
 6.4779401e+00   6.0005270e+03
 6.4826198e+00   5.9813423e+03
 6.4872999e+00   5.9959346e+03
 6.4919801e+00   6.0029635e+03
 6.4966602e+00   6.0221817e+03
 6.5013399e+00   5.9966285e+03
 6.5060201e+00   6.0281634e+03
 6.5107002e+00   6.0100688e+03
 6.5153799e+00   6.0285039e+03
 6.5200601e+00   6.0392384e+03
 6.5247402e+00   6.0466010e+03
 6.5294199e+00   6.0206910e+03
 6.5341001e+00   6.0559876e+03
 6.5387802e+00   6.0411231e+03
 6.5434599e+00   6.0735695e+03
 6.5481400e+00   6.0803077e+03
 6.5528202e+00   6.0655766e+03
 6.5574999e+00   6.1102217e+03
 6.5621800e+00   6.0634715e+03
 6.5668602e+00   6.1133557e+03
 6.5715399e+00   6.1361258e+03
 6.5762200e+00   6.1170673e+03
 6.5809002e+00   6.1365060e+03
 6.5855799e+00   6.1581288e+03
 6.5902600e+00   6.1382432e+03
 6.5949402e+00   6.1881146e+03
 6.5996199e+00   6.1461847e+03
 6.6043000e+00   6.1946484e+03
 6.6089802e+00   6.1850006e+03
 6.6136599e+00   6.1930022e+03
 6.6183400e+00   6.1991141e+03
 6.6230202e+00   6.2266564e+03
 6.6276999e+00   6.1939017e+03
 6.6323800e+00   6.2329416e+03
 6.6370602e+00   6.2352631e+03
 6.6417398e+00   6.2280522e+03
 6.6464200e+00   6.2783578e+03
 6.6511002e+00   6.2310185e+03
 6.6557798e+00   6.2891013e+03
 6.6604600e+00   6.2974471e+03
 6.6651402e+00   6.3106877e+03
 6.6698198e+00   6.3047446e+03
 6.6745000e+00   6.3494256e+03
 6.6791801e+00   6.3196152e+03
 6.6838598e+00   6.3901683e+03
 6.6885400e+00   6.3479412e+03
 6.6932201e+00   6.4151328e+03
 6.6978998e+00   6.3807975e+03
 6.7025800e+00   6.4330949e+03
 6.7072601e+00   6.4319194e+03
 6.7119398e+00   6.4733145e+03
 6.7166200e+00   6.4434605e+03
 6.7213001e+00   6.4815169e+03
 6.7259798e+00   6.4785066e+03
 6.7306600e+00   6.4903129e+03
 6.7353401e+00   6.5694002e+03
 6.7400198e+00   6.5281823e+03
 6.7447000e+00   6.5827548e+03
 6.7493801e+00   6.5340387e+03
 6.7540598e+00   6.5947423e+03
 6.7587399e+00   6.5779405e+03
 6.7634201e+00   6.6079023e+03
 6.7680998e+00   6.5652405e+03
 6.7727799e+00   6.6662335e+03
 6.7774601e+00   6.5672414e+03
 6.7821398e+00   6.6181875e+03
 6.7868199e+00   6.5723555e+03
 6.7915001e+00   6.6159986e+03
 6.7961798e+00   6.6135750e+03
 6.8008599e+00   6.5878187e+03
 6.8055401e+00   6.6045061e+03
 6.8102198e+00   6.5917753e+03
 6.8148999e+00   6.6016409e+03
 6.8195801e+00   6.6205141e+03
 6.8242602e+00   6.6254508e+03
 6.8289399e+00   6.6079760e+03
 6.8336201e+00   6.6424768e+03
 6.8383002e+00   6.6073160e+03
 6.8429799e+00   6.6326256e+03
 6.8476601e+00   6.6836824e+03
 6.8523402e+00   6.6490777e+03
 6.8570199e+00   6.6264343e+03
 6.8617001e+00   6.6494461e+03
 6.8663802e+00   6.6430830e+03
 6.8710599e+00   6.6798989e+03
 6.8757401e+00   6.6719006e+03
 6.8804202e+00   6.6787638e+03
 6.8850999e+00   6.6736995e+03
 6.8897800e+00   6.7327866e+03
 6.8944602e+00   6.6882623e+03
 6.8991399e+00   6.7765313e+03
 6.9038200e+00   6.7453299e+03
 6.9085002e+00   6.8086780e+03
 6.9131799e+00   6.7666389e+03
 6.9178600e+00   6.8457443e+03
 6.9225402e+00   6.8207776e+03
 6.9272199e+00   6.8667712e+03
 6.9319000e+00   6.8357331e+03
 6.9365802e+00   6.9095411e+03
 6.9412599e+00   6.8589954e+03
 6.9459400e+00   6.9490412e+03
 6.9506202e+00   6.9404027e+03
 6.9552999e+00   7.0022915e+03
 6.9599800e+00   7.0318431e+03
 6.9646602e+00   7.0850544e+03
 6.9693398e+00   7.0811102e+03
 6.9740200e+00   7.2112141e+03
 6.9787002e+00   7.2538503e+03
 6.9833798e+00   7.3606172e+03
 6.9880600e+00   7.5209501e+03
 6.9927402e+00   7.6899307e+03
 6.9974198e+00   7.8836802e+03
 7.0021000e+00   8.1008333e+03
 7.0067801e+00   8.4282781e+03
 7.0114598e+00   8.7228445e+03
 7.0161400e+00   9.0425115e+03
 7.0208201e+00   9.2971332e+03
 7.0254998e+00   9.5514491e+03
 7.0301800e+00   9.5971609e+03
 7.0348601e+00   9.6539348e+03
 7.0395398e+00   9.4877626e+03
 7.0442200e+00   9.3119532e+03
 7.0489001e+00   9.0111183e+03
 7.0535798e+00   8.7135809e+03
 7.0582600e+00   8.4264880e+03
 7.0629401e+00   8.1944728e+03
 7.0676198e+00   7.8842885e+03
 7.0723000e+00   7.7324726e+03
 7.0769801e+00   7.4972755e+03
 7.0816598e+00   7.3555359e+03
 7.0863400e+00   7.2491125e+03
 7.0910201e+00   7.0658976e+03
 7.0956998e+00   6.9903144e+03
 7.1003799e+00   6.9289697e+03
 7.1050601e+00   6.8560598e+03
 7.1097398e+00   6.8020933e+03
 7.1144199e+00   6.7738539e+03
 7.1191001e+00   6.7312846e+03
 7.1237798e+00   6.7418088e+03
 7.1284599e+00   6.7020321e+03
 7.1331401e+00   6.6943320e+03
 7.1378198e+00   6.6646411e+03
 7.1424999e+00   6.6710817e+03
 7.1471801e+00   6.6447889e+03
 7.1518602e+00   6.6552116e+03
 7.1565399e+00   6.6171457e+03
 7.1612201e+00   6.6235745e+03
 7.1659002e+00   6.5911682e+03
 7.1705799e+00   6.5973885e+03
 7.1752601e+00   6.5968557e+03
 7.1799402e+00   6.5770924e+03
 7.1846199e+00   6.5683751e+03
 7.1893001e+00   6.5535930e+03
 7.1939802e+00   6.5515801e+03
 7.1986599e+00   6.5362900e+03
 7.2033401e+00   6.5275751e+03
 7.2080202e+00   6.5264814e+03
 7.2126999e+00   6.5484200e+03
 7.2173800e+00   6.4878545e+03
 7.2220602e+00   6.5168553e+03
 7.2267399e+00   6.5153572e+03
 7.2314200e+00   6.5146565e+03
 7.2361002e+00   6.5276453e+03
 7.2407799e+00   6.5170588e+03
 7.2454600e+00   6.5037859e+03
 7.2501402e+00   6.5524422e+03
 7.2548199e+00   6.5244775e+03
 7.2595000e+00   6.5454340e+03
 7.2641802e+00   6.5693323e+03
 7.2688599e+00   6.5552077e+03
 7.2735400e+00   6.5605477e+03
 7.2782202e+00   6.5462194e+03
 7.2828999e+00   6.5509997e+03
 7.2875800e+00   6.5344168e+03
 7.2922602e+00   6.5291707e+03
 7.2969398e+00   6.5090554e+03
 7.3016200e+00   6.5349719e+03
 7.3063002e+00   6.5098275e+03
 7.3109798e+00   6.5368700e+03
 7.3156600e+00   6.5114449e+03
 7.3203402e+00   6.5232554e+03
 7.3250198e+00   6.5292078e+03
 7.3297000e+00   6.5343955e+03
 7.3343801e+00   6.5315532e+03
 7.3390598e+00   6.5450888e+03
 7.3437400e+00   6.5401073e+03
 7.3484201e+00   6.5462931e+03
 7.3530998e+00   6.5584174e+03
 7.3577800e+00   6.5457259e+03
 7.3624601e+00   6.5564447e+03
 7.3671398e+00   6.5424644e+03
 7.3718200e+00   6.5362096e+03
 7.3765001e+00   6.5458017e+03
 7.3811798e+00   6.5291168e+03
 7.3858600e+00   6.5287272e+03
 7.3905401e+00   6.5064334e+03
 7.3952198e+00   6.4982515e+03
 7.3999000e+00   6.4865487e+03
 7.4045801e+00   6.4761245e+03
 7.4092598e+00   6.4659326e+03
 7.4139400e+00   6.4747034e+03
 7.4186201e+00   6.4384267e+03
 7.4232998e+00   6.4377248e+03
 7.4279799e+00   6.4286074e+03
 7.4326601e+00   6.4440907e+03
 7.4373398e+00   6.4291808e+03
 7.4420199e+00   6.4342402e+03
 7.4467001e+00   6.4294871e+03
 7.4513798e+00   6.4383038e+03
 7.4560599e+00   6.4348173e+03
 7.4607401e+00   6.4445623e+03
 7.4654198e+00   6.4363431e+03
 7.4700999e+00   6.4427471e+03
 7.4747801e+00   6.4545387e+03
 7.4794598e+00   6.4401888e+03
 7.4841399e+00   6.4651243e+03
 7.4888201e+00   6.4659345e+03
 7.4935002e+00   6.4626476e+03
 7.4981799e+00   6.4735095e+03
 7.5028601e+00   6.5027214e+03
 7.5075402e+00   6.5013315e+03
 7.5122199e+00   6.5308696e+03
 7.5169001e+00   6.5405204e+03
 7.5215802e+00   6.5952762e+03
 7.5262599e+00   6.6350150e+03
 7.5309401e+00   6.6733972e+03
 7.5356202e+00   6.7349819e+03
 7.5402999e+00   6.8017227e+03
 7.5449800e+00   6.9087617e+03
 7.5496602e+00   7.0088922e+03
 7.5543399e+00   7.1723191e+03
 7.5590200e+00   7.3688815e+03
 7.5637002e+00   7.6153760e+03
 7.5683799e+00   7.9233704e+03
 7.5730600e+00   8.3119437e+03
 7.5777402e+00   8.7627823e+03
 7.5824199e+00   9.2989273e+03
 7.5871000e+00   9.8613427e+03
 7.5917802e+00   1.0485783e+04
 7.5964599e+00   1.1043366e+04
 7.6011400e+00   1.1534471e+04
 7.6058202e+00   1.1810981e+04
 7.6104999e+00   1.1914008e+04
 7.6151800e+00   1.1814798e+04
 7.6198602e+00   1.1448524e+04
 7.6245399e+00   1.1008139e+04
 7.6292200e+00   1.0371194e+04
 7.6339002e+00   9.7583228e+03
 7.6385798e+00   9.1239721e+03
 7.6432600e+00   8.5606658e+03
 7.6479402e+00   8.0752999e+03
 7.6526198e+00   7.7325295e+03
 7.6573000e+00   7.3743555e+03
 7.6619802e+00   7.1579659e+03
 7.6666598e+00   6.9092425e+03
 7.6713400e+00   6.7245965e+03
 7.6760201e+00   6.5952963e+03
 7.6806998e+00   6.5128132e+03
 7.6853800e+00   6.4342564e+03
 7.6900601e+00   6.3677686e+03
 7.6947398e+00   6.2985519e+03
 7.6994200e+00   6.2461247e+03
 7.7041001e+00   6.2194062e+03
 7.7087798e+00   6.1930055e+03
 7.7134600e+00   6.1629265e+03
 7.7181401e+00   6.1276865e+03
 7.7228198e+00   6.1320337e+03
 7.7275000e+00   6.0779232e+03
 7.7321801e+00   6.0686931e+03
 7.7368598e+00   6.0611846e+03
 7.7415400e+00   6.0351752e+03
 7.7462201e+00   6.0123093e+03
 7.7508998e+00   6.0028475e+03
 7.7555799e+00   5.9587518e+03
 7.7602601e+00   5.9759554e+03
 7.7649398e+00   5.9419764e+03
 7.7696199e+00   5.9255112e+03
 7.7743001e+00   5.9263671e+03
 7.7789798e+00   5.8856310e+03
 7.7836599e+00   5.9047868e+03
 7.7883401e+00   5.8686749e+03
 7.7930198e+00   5.8602657e+03
 7.7976999e+00   5.8560524e+03
 7.8023801e+00   5.8379902e+03
 7.8070598e+00   5.8187318e+03
 7.8117399e+00   5.8473720e+03
 7.8164201e+00   5.8032573e+03
 7.8211002e+00   5.8167715e+03
 7.8257799e+00   5.7927910e+03
 7.8304601e+00   5.7790127e+03
 7.8351402e+00   5.7942506e+03
 7.8398199e+00   5.7699841e+03
 7.8445001e+00   5.7491104e+03
 7.8491802e+00   5.7511442e+03
 7.8538599e+00   5.7337699e+03
 7.8585401e+00   5.7241409e+03
 7.8632202e+00   5.7313679e+03
 7.8678999e+00   5.6999179e+03
 7.8725801e+00   5.7239596e+03
 7.8772602e+00   5.7136962e+03
 7.8819399e+00   5.6821503e+03
 7.8866200e+00   5.7007716e+03
 7.8913002e+00   5.6907132e+03
 7.8959799e+00   5.6684020e+03
 7.9006600e+00   5.6738958e+03
 7.9053402e+00   5.6543205e+03
 7.9100199e+00   5.6793723e+03
 7.9147000e+00   5.6478533e+03
 7.9193802e+00   5.6510863e+03
 7.9240599e+00   5.6498510e+03
 7.9287400e+00   5.6346012e+03
 7.9334202e+00   5.6530381e+03
 7.9380999e+00   5.6256450e+03
 7.9427800e+00   5.6087713e+03
 7.9474602e+00   5.6365130e+03
 7.9521399e+00   5.6278331e+03
 7.9568200e+00   5.5893765e+03
 7.9615002e+00   5.6267469e+03
 7.9661798e+00   5.6003545e+03
 7.9708600e+00   5.6074237e+03
 7.9755402e+00   5.6058300e+03
 7.9802198e+00   5.5985751e+03
 7.9849000e+00   5.6109567e+03
 7.9895802e+00   5.6250833e+03
 7.9942598e+00   5.6089727e+03
 7.9989400e+00   5.6549134e+03
 8.0036201e+00   5.6408328e+03
 8.0082998e+00   5.6745661e+03
 8.0129805e+00   5.7049627e+03
 8.0176601e+00   5.7351160e+03
 8.0223398e+00   5.8024405e+03
 8.0270205e+00   5.8729713e+03
 8.0317001e+00   5.9559898e+03
 8.0363798e+00   6.1156403e+03
 8.0410604e+00   6.2537139e+03
 8.0457401e+00   6.5688521e+03
 8.0504198e+00   6.8885322e+03
 8.0551004e+00   7.2439676e+03
 8.0597801e+00   7.7060280e+03
 8.0644598e+00   8.2280815e+03
 8.0691404e+00   8.7543085e+03
 8.0738201e+00   9.3604486e+03
 8.0784998e+00   9.8496176e+03
 8.0831804e+00   1.0276692e+04
 8.0878601e+00   1.0578740e+04
 8.0925398e+00   1.0636784e+04
 8.0972204e+00   1.0623049e+04
 8.1019001e+00   1.0428799e+04
 8.1065798e+00   1.0102403e+04
 8.1112604e+00   9.6926976e+03
 8.1159401e+00   9.2250626e+03
 8.1206198e+00   8.7338970e+03
 8.1253004e+00   8.2988983e+03
 8.1299801e+00   7.9099770e+03
 8.1346598e+00   7.5072996e+03
 8.1393404e+00   7.2149769e+03
 8.1440201e+00   6.8859452e+03
 8.1486998e+00   6.6104056e+03
 8.1533804e+00   6.3823228e+03
 8.1580601e+00   6.2465728e+03
 8.1627398e+00   6.0807477e+03
 8.1674204e+00   5.9709307e+03
 8.1721001e+00   5.8443755e+03
 8.1767797e+00   5.7862745e+03
 8.1814604e+00   5.6758427e+03
 8.1861401e+00   5.6597724e+03
 8.1908197e+00   5.5928924e+03
 8.1955004e+00   5.5445009e+03
 8.2001801e+00   5.5265617e+03
 8.2048597e+00   5.4823642e+03
 8.2095404e+00   5.4693741e+03
 8.2142200e+00   5.4563649e+03
 8.2188997e+00   5.4388636e+03
 8.2235804e+00   5.4334852e+03
 8.2282600e+00   5.4134627e+03
 8.2329397e+00   5.4002696e+03
 8.2376204e+00   5.3999268e+03
 8.2423000e+00   5.3801982e+03
 8.2469797e+00   5.3951556e+03
 8.2516603e+00   5.3440754e+03
 8.2563400e+00   5.3644006e+03
 8.2610197e+00   5.3261446e+03
 8.2657003e+00   5.3434407e+03
 8.2703800e+00   5.3111196e+03
 8.2750597e+00   5.3225483e+03
 8.2797403e+00   5.3074776e+03
 8.2844200e+00   5.3168578e+03
 8.2890997e+00   5.3098753e+03
 8.2937803e+00   5.3013720e+03
 8.2984600e+00   5.3221706e+03
 8.3031397e+00   5.3095107e+03
 8.3078203e+00   5.3139545e+03
 8.3125000e+00   5.3071830e+03
 8.3171797e+00   5.3295333e+03
 8.3218603e+00   5.3362524e+03
 8.3265400e+00   5.3753682e+03
 8.3312197e+00   5.3709349e+03
 8.3359003e+00   5.4313288e+03
 8.3405800e+00   5.4539208e+03
 8.3452597e+00   5.5314415e+03
 8.3499403e+00   5.6202753e+03
 8.3546200e+00   5.7457673e+03
 8.3592997e+00   5.8326566e+03
 8.3639803e+00   6.0157470e+03
 8.3686600e+00   6.1999541e+03
 8.3733397e+00   6.4935244e+03
 8.3780203e+00   6.8410110e+03
 8.3827000e+00   7.2468867e+03
 8.3873796e+00   7.3985209e+03
 8.3920603e+00   7.6674958e+03
 8.3967400e+00   7.9482123e+03
 8.4014196e+00   8.3698481e+03
 8.4061003e+00   8.4673507e+03
 8.4107800e+00   8.4954573e+03
 8.4154596e+00   8.1982288e+03
 8.4201403e+00   7.9641177e+03
 8.4248199e+00   7.3240704e+03
 8.4294996e+00   7.0836821e+03
 8.4341803e+00   6.8502144e+03
 8.4388599e+00   6.6238205e+03
 8.4435396e+00   6.3403524e+03
 8.4482203e+00   6.0286819e+03
 8.4528999e+00   5.8680870e+03
 8.4575796e+00   5.7382734e+03
 8.4622602e+00   5.6149208e+03
 8.4669399e+00   5.5497809e+03
 8.4716196e+00   5.4717724e+03
 8.4763002e+00   5.4222136e+03
 8.4809799e+00   5.3591561e+03
 8.4856596e+00   5.3396438e+03
 8.4903402e+00   5.3002568e+03
 8.4950199e+00   5.2849070e+03
 8.4996996e+00   5.2537761e+03
 8.5043802e+00   5.2527323e+03
 8.5090599e+00   5.2071713e+03
 8.5137396e+00   5.2160704e+03
 8.5184202e+00   5.1798114e+03
 8.5230999e+00   5.1954180e+03
 8.5277796e+00   5.1754388e+03
 8.5324602e+00   5.1624042e+03
 8.5371399e+00   5.1459826e+03
 8.5418196e+00   5.1314630e+03
 8.5465002e+00   5.1373370e+03
 8.5511799e+00   5.1327256e+03
 8.5558596e+00   5.1371842e+03
 8.5605402e+00   5.1158746e+03
 8.5652199e+00   5.1300028e+03
 8.5698996e+00   5.0853992e+03
 8.5745802e+00   5.1217786e+03
 8.5792599e+00   5.0963028e+03
 8.5839396e+00   5.1051531e+03
 8.5886202e+00   5.0751402e+03
 8.5932999e+00   5.0927312e+03
 8.5979795e+00   5.0765014e+03
 8.6026602e+00   5.0906414e+03
 8.6073399e+00   5.0686950e+03
 8.6120195e+00   5.0681129e+03
 8.6167002e+00   5.0626406e+03
 8.6213799e+00   5.0503872e+03
 8.6260595e+00   5.0552939e+03
 8.6307402e+00   5.0366144e+03
 8.6354198e+00   5.0577893e+03
 8.6400995e+00   5.0374116e+03
 8.6447802e+00   5.0566978e+03
 8.6494598e+00   5.0300536e+03
 8.6541405e+00   5.0420640e+03
 8.6588202e+00   5.0384086e+03
 8.6634998e+00   5.0267941e+03
 8.6681805e+00   5.0243575e+03
 8.6728601e+00   5.0264025e+03
 8.6775398e+00   5.0143033e+03
 8.6822205e+00   5.0076250e+03
 8.6869001e+00   5.0227424e+03
 8.6915798e+00   4.9991283e+03
 8.6962605e+00   5.0201932e+03
 8.7009401e+00   5.0117604e+03
 8.7056198e+00   5.0063792e+03
 8.7103004e+00   4.9919565e+03
 8.7149801e+00   5.0057088e+03
 8.7196598e+00   4.9957841e+03
 8.7243404e+00   5.0067621e+03
 8.7290201e+00   4.9992935e+03
 8.7336998e+00   5.0053175e+03
 8.7383804e+00   5.0068327e+03
 8.7430601e+00   5.0277094e+03
 8.7477398e+00   5.0071834e+03
 8.7524204e+00   5.0337223e+03
 8.7571001e+00   5.0324444e+03
 8.7617798e+00   5.0587418e+03
 8.7664604e+00   5.0790833e+03
 8.7711401e+00   5.1005687e+03
 8.7758198e+00   5.1154527e+03
 8.7805004e+00   5.1695291e+03
 8.7851801e+00   5.1920735e+03
 8.7898598e+00   5.2427214e+03
 8.7945404e+00   5.3073384e+03
 8.7992201e+00   5.3665306e+03
 8.8038998e+00   5.4709060e+03
 8.8085804e+00   5.5519045e+03
 8.8132601e+00   5.6865643e+03
 8.8179398e+00   5.8039268e+03
 8.8226204e+00   5.9512708e+03
 8.8273001e+00   6.0807171e+03
 8.8319798e+00   6.2266264e+03
 8.8366604e+00   6.3176101e+03
 8.8413401e+00   6.4183865e+03
 8.8460197e+00   6.4512542e+03
 8.8507004e+00   6.4384073e+03
 8.8553801e+00   6.3714433e+03
 8.8600597e+00   6.2737794e+03
 8.8647404e+00   6.1521683e+03
 8.8694201e+00   5.9803430e+03
 8.8740997e+00   5.8325594e+03
 8.8787804e+00   5.6737635e+03
 8.8834600e+00   5.5385188e+03
 8.8881397e+00   5.4157760e+03
 8.8928204e+00   5.3448985e+03
 8.8975000e+00   5.2499374e+03
 8.9021797e+00   5.1846971e+03
 8.9068604e+00   5.1390358e+03
 8.9115400e+00   5.1068437e+03
 8.9162197e+00   5.0818812e+03
 8.9209003e+00   5.0717519e+03
 8.9255800e+00   5.0534372e+03
 8.9302597e+00   5.0398080e+03
 8.9349403e+00   5.0407018e+03
 8.9396200e+00   5.0450022e+03
 8.9442997e+00   5.0595561e+03
 8.9489803e+00   5.0549580e+03
 8.9536600e+00   5.0769835e+03
 8.9583397e+00   5.0931055e+03
 8.9630203e+00   5.1309937e+03
 8.9677000e+00   5.1392751e+03
 8.9723797e+00   5.1950717e+03
 8.9770603e+00   5.2225054e+03
 8.9817400e+00   5.2667528e+03
 8.9864197e+00   5.3133849e+03
 8.9911003e+00   5.3727083e+03
 8.9957800e+00   5.4079668e+03
 9.0004597e+00   5.4569805e+03
 9.0051403e+00   5.5045919e+03
 9.0098200e+00   5.5200709e+03
 9.0144997e+00   5.5439413e+03
 9.0191803e+00   5.5373183e+03
 9.0238600e+00   5.5146485e+03
 9.0285397e+00   5.4695814e+03
 9.0332203e+00   5.4169713e+03
 9.0379000e+00   5.3450354e+03
 9.0425797e+00   5.2792325e+03
 9.0472603e+00   5.2160110e+03
 9.0519400e+00   5.1543146e+03
 9.0566196e+00   5.0847655e+03
 9.0613003e+00   5.0564729e+03
 9.0659800e+00   5.0019655e+03
 9.0706596e+00   4.9764059e+03
 9.0753403e+00   4.9462489e+03
 9.0800200e+00   4.9290453e+03
 9.0846996e+00   4.9059147e+03
 9.0893803e+00   4.9027568e+03
 9.0940599e+00   4.8825022e+03
 9.0987396e+00   4.8859782e+03
 9.1034203e+00   4.8791686e+03
 9.1080999e+00   4.8814447e+03
 9.1127796e+00   4.8720857e+03
 9.1174603e+00   4.8689552e+03
 9.1221399e+00   4.8731298e+03
 9.1268196e+00   4.8676429e+03
 9.1315002e+00   4.8722613e+03
 9.1361799e+00   4.8642997e+03
 9.1408596e+00   4.8866148e+03
 9.1455402e+00   4.8806165e+03
 9.1502199e+00   4.8814189e+03
 9.1548996e+00   4.8907087e+03
 9.1595802e+00   4.8980508e+03
 9.1642599e+00   4.9019741e+03
 9.1689396e+00   4.9211661e+03
 9.1736202e+00   4.9130586e+03
 9.1782999e+00   4.9418876e+03
 9.1829796e+00   4.9697114e+03
 9.1876602e+00   4.9624448e+03
 9.1923399e+00   5.0038707e+03
 9.1970196e+00   5.0232597e+03
 9.2017002e+00   5.0618789e+03
 9.2063799e+00   5.1219146e+03
 9.2110596e+00   5.1895337e+03
 9.2157402e+00   5.2565633e+03
 9.2204199e+00   5.3628069e+03
 9.2250996e+00   5.4751912e+03
 9.2297802e+00   5.6394572e+03
 9.2344599e+00   5.8075641e+03
 9.2391396e+00   6.0229807e+03
 9.2438202e+00   6.2212980e+03
 9.2484999e+00   6.4289969e+03
 9.2531796e+00   6.6134682e+03
 9.2578602e+00   6.7699275e+03
 9.2625399e+00   6.8724088e+03
 9.2672195e+00   6.9049601e+03
 9.2719002e+00   6.8805564e+03
 9.2765799e+00   6.7795705e+03
 9.2812595e+00   6.6452322e+03
 9.2859402e+00   6.4655731e+03
 9.2906199e+00   6.2911270e+03
 9.2952995e+00   6.0912494e+03
 9.2999802e+00   5.9113464e+03
 9.3046598e+00   5.7436617e+03
 9.3093395e+00   5.6063576e+03
 9.3140202e+00   5.5024667e+03
 9.3186998e+00   5.3971763e+03
 9.3233805e+00   5.3157099e+03
 9.3280602e+00   5.2757704e+03
 9.3327398e+00   5.2358930e+03
 9.3374205e+00   5.2170074e+03
 9.3421001e+00   5.2086674e+03
 9.3467798e+00   5.2070794e+03
 9.3514605e+00   5.2275706e+03
 9.3561401e+00   5.2505525e+03
 9.3608198e+00   5.2653359e+03
 9.3655005e+00   5.3001781e+03
 9.3701801e+00   5.3122645e+03
 9.3748598e+00   5.3255948e+03
 9.3795404e+00   5.3257306e+03
 9.3842201e+00   5.3255114e+03
 9.3888998e+00   5.3251537e+03
 9.3935804e+00   5.3278455e+03
 9.3982601e+00   5.3203390e+03
 9.4029398e+00   5.3066750e+03
 9.4076204e+00   5.3024897e+03
 9.4123001e+00   5.3236604e+03
 9.4169798e+00   5.3348354e+03
 9.4216604e+00   5.3732157e+03
 9.4263401e+00   5.4130758e+03
 9.4310198e+00   5.4860445e+03
 9.4357004e+00   5.5522921e+03
 9.4403801e+00   5.6647711e+03
 9.4450598e+00   5.7596005e+03
 9.4497404e+00   5.8833098e+03
 9.4544201e+00   6.0018661e+03
 9.4590998e+00   6.1152980e+03
 9.4637804e+00   6.2147013e+03
 9.4684601e+00   6.3093116e+03
 9.4731398e+00   6.3642324e+03
 9.4778204e+00   6.4117615e+03
 9.4825001e+00   6.4297107e+03
 9.4871798e+00   6.4274780e+03
 9.4918604e+00   6.3881887e+03
 9.4965401e+00   6.3244320e+03
 9.5012197e+00   6.2504404e+03
 9.5059004e+00   6.1277258e+03
 9.5105801e+00   6.0054080e+03
 9.5152597e+00   5.8857013e+03
 9.5199404e+00   5.7534733e+03
 9.5246201e+00   5.6355279e+03
 9.5292997e+00   5.5156512e+03
 9.5339804e+00   5.4063325e+03
 9.5386600e+00   5.3319420e+03
 9.5433397e+00   5.2604457e+03
 9.5480204e+00   5.1972491e+03
 9.5527000e+00   5.1475782e+03
 9.5573797e+00   5.0962158e+03
 9.5620604e+00   5.0695082e+03
 9.5667400e+00   5.0412792e+03
 9.5714197e+00   5.0237763e+03
 9.5761003e+00   5.0134086e+03
 9.5807800e+00   4.9811836e+03
 9.5854597e+00   4.9809234e+03
 9.5901403e+00   4.9771732e+03
 9.5948200e+00   4.9610380e+03
 9.5994997e+00   4.9662622e+03
 9.6041803e+00   4.9555507e+03
 9.6088600e+00   4.9614589e+03
 9.6135397e+00   4.9523157e+03
 9.6182203e+00   4.9437938e+03
 9.6229000e+00   4.9369556e+03
 9.6275797e+00   4.9463121e+03
 9.6322603e+00   4.9447079e+03
 9.6369400e+00   4.9461679e+03
 9.6416197e+00   4.9514493e+03
 9.6463003e+00   4.9368440e+03
 9.6509800e+00   4.9401725e+03
 9.6556597e+00   4.9424765e+03
 9.6603403e+00   4.9526023e+03
 9.6650200e+00   4.9501456e+03
 9.6696997e+00   4.9482458e+03
 9.6743803e+00   4.9466420e+03
 9.6790600e+00   4.9594701e+03
 9.6837397e+00   4.9550257e+03
 9.6884203e+00   4.9662647e+03
 9.6931000e+00   4.9682284e+03
 9.6977797e+00   4.9774223e+03
 9.7024603e+00   4.9791234e+03
 9.7071400e+00   4.9787624e+03
 9.7118196e+00   4.9776590e+03
 9.7165003e+00   4.9917927e+03
 9.7211800e+00   4.9998552e+03
 9.7258596e+00   5.0272545e+03
 9.7305403e+00   5.0344237e+03
 9.7352200e+00   5.0580158e+03
 9.7398996e+00   5.0695841e+03
 9.7445803e+00   5.0962561e+03
 9.7492599e+00   5.1484709e+03
 9.7539396e+00   5.1772548e+03
 9.7586203e+00   5.2433475e+03
 9.7632999e+00   5.3155550e+03
 9.7679796e+00   5.3992211e+03
 9.7726603e+00   5.5133808e+03
 9.7773399e+00   5.6496379e+03
 9.7820196e+00   5.8035253e+03
 9.7867002e+00   6.0060331e+03
 9.7913799e+00   6.2125825e+03
 9.7960596e+00   6.4320761e+03
 9.8007402e+00   6.6537734e+03
 9.8054199e+00   6.8728013e+03
 9.8100996e+00   7.0742838e+03
 9.8147802e+00   7.2471569e+03
 9.8194599e+00   7.3958953e+03
 9.8241396e+00   7.5042272e+03
 9.8288202e+00   7.5193158e+03
 9.8334999e+00   7.9143146e+03
 9.8381796e+00   8.2425097e+03
 9.8428602e+00   8.7404446e+03
 9.8475399e+00   9.4453191e+03
 9.8522196e+00   9.7101764e+03
 9.8569002e+00   1.0690055e+04
 9.8615799e+00   1.1445288e+04
 9.8662596e+00   1.1476808e+04
 9.8709402e+00   1.0823910e+04
 9.8756199e+00   9.9946924e+03
 9.8802996e+00   8.7234690e+03
 9.8849802e+00   7.2864245e+03
 9.8896599e+00   6.9602258e+03
 9.8943396e+00   6.5761152e+03
 9.8990202e+00   6.1185071e+03
 9.9036999e+00   5.7848630e+03
 9.9083796e+00   5.5586300e+03
 9.9130602e+00   5.4234076e+03
 9.9177399e+00   5.3411242e+03
 9.9224195e+00   5.2858268e+03
 9.9271002e+00   5.2359228e+03
 9.9317799e+00   5.1893644e+03
 9.9364595e+00   5.1775951e+03
 9.9411402e+00   5.1604835e+03
 9.9458199e+00   5.1276772e+03
 9.9504995e+00   5.1314939e+03
 9.9551802e+00   5.1130923e+03
 9.9598598e+00   5.1182422e+03
 9.9645395e+00   5.1130247e+03
 9.9692202e+00   5.1021410e+03
 9.9738998e+00   5.0911416e+03
 9.9785805e+00   5.0943226e+03
 9.9832602e+00   5.0952187e+03
 9.9879398e+00   5.1023323e+03
 9.9926205e+00   5.0983159e+03
 9.9973001e+00   5.1022290e+03
 1.0001980e+01   5.0968687e+03
 1.0006660e+01   5.1134264e+03
 1.0011340e+01   5.1009646e+03
 1.0016020e+01   5.1084094e+03
 1.0020700e+01   5.1143196e+03
 1.0025380e+01   5.1017623e+03
 1.0030060e+01   5.1004597e+03
 1.0034740e+01   5.1104592e+03
 1.0039420e+01   5.1141922e+03
 1.0044100e+01   5.1290235e+03
 1.0048780e+01   5.1463267e+03
 1.0053460e+01   5.1601478e+03
 1.0058140e+01   5.1747424e+03
 1.0062820e+01   5.1838260e+03
 1.0067500e+01   5.2041378e+03
 1.0072180e+01   5.2039651e+03
 1.0076860e+01   5.2233112e+03
 1.0081540e+01   5.2035497e+03
 1.0086220e+01   5.2063227e+03
 1.0090900e+01   5.2006039e+03
 1.0095580e+01   5.1929879e+03
 1.0100260e+01   5.1672151e+03
 1.0104940e+01   5.1630987e+03
 1.0109620e+01   5.1569223e+03
 1.0114300e+01   5.1334588e+03
 1.0118980e+01   5.1383715e+03
 1.0123660e+01   5.1166192e+03
 1.0128340e+01   5.1038568e+03
 1.0133020e+01   5.0922328e+03
 1.0137700e+01   5.0963554e+03
 1.0142380e+01   5.0897114e+03
 1.0147060e+01   5.0925001e+03
 1.0151740e+01   5.0798071e+03
 1.0156420e+01   5.0745096e+03
 1.0161100e+01   5.0688346e+03
 1.0165780e+01   5.0746280e+03
 1.0170460e+01   5.0765565e+03
 1.0175140e+01   5.0702681e+03
 1.0179820e+01   5.0661915e+03
 1.0184500e+01   5.0718056e+03
 1.0189180e+01   5.0539454e+03
 1.0193860e+01   5.0805597e+03
 1.0198540e+01   5.0716245e+03
 1.0203220e+01   5.0624386e+03
 1.0207900e+01   5.0907815e+03
 1.0212580e+01   5.0625528e+03
 1.0217260e+01   5.0907352e+03
 1.0221940e+01   5.0704996e+03
 1.0226620e+01   5.0779240e+03
 1.0231300e+01   5.1046753e+03
 1.0235980e+01   5.1014317e+03
 1.0240660e+01   5.1050958e+03
 1.0245340e+01   5.1127556e+03
 1.0250020e+01   5.1345503e+03
 1.0254700e+01   5.1713136e+03
 1.0259380e+01   5.2090959e+03
 1.0264060e+01   5.2936124e+03
 1.0268740e+01   5.4218051e+03
 1.0273420e+01   5.4574969e+03
 1.0278100e+01   5.4104007e+03
 1.0282780e+01   5.3823482e+03
 1.0287460e+01   5.5206677e+03
 1.0292140e+01   5.6641496e+03
 1.0296820e+01   5.7264371e+03
 1.0301500e+01   5.8136401e+03
 1.0306180e+01   5.8527709e+03
 1.0310860e+01   5.7892228e+03
 1.0315540e+01   5.7248395e+03
 1.0320220e+01   5.6086310e+03
 1.0324900e+01   5.6947101e+03
 1.0329580e+01   5.8011987e+03
 1.0334260e+01   5.5652992e+03
 1.0338940e+01   5.3599312e+03
 1.0343620e+01   5.2799659e+03
 1.0348300e+01   5.2185339e+03
 1.0352980e+01   5.1492009e+03
 1.0357660e+01   5.1301754e+03
 1.0362340e+01   5.1012521e+03
 1.0367020e+01   5.0899497e+03
 1.0371700e+01   5.0746256e+03
 1.0376380e+01   5.0742384e+03
 1.0381060e+01   5.0721674e+03
 1.0385740e+01   5.0740762e+03
 1.0390420e+01   5.0618847e+03
 1.0395100e+01   5.0577492e+03
 1.0399780e+01   5.0563030e+03
 1.0404460e+01   5.0438643e+03
 1.0409140e+01   5.0569834e+03
 1.0413820e+01   5.0462785e+03
 1.0418500e+01   5.0468844e+03
 1.0423180e+01   5.0556819e+03
 1.0427860e+01   5.0436858e+03
 1.0432540e+01   5.0274936e+03
 1.0437220e+01   5.0425862e+03
 1.0441900e+01   5.0395581e+03
 1.0446580e+01   5.0509871e+03
 1.0451260e+01   5.0289815e+03
 1.0455940e+01   5.0414429e+03
 1.0460620e+01   5.0356703e+03
 1.0465300e+01   5.0486984e+03
 1.0469980e+01   5.0422253e+03
 1.0474660e+01   5.0422448e+03
 1.0479340e+01   5.0372230e+03
 1.0484020e+01   5.0428077e+03
 1.0488700e+01   5.0573930e+03
 1.0493380e+01   5.0534689e+03
 1.0498060e+01   5.0588668e+03
 1.0502740e+01   5.0543667e+03
 1.0507420e+01   5.0743825e+03
 1.0512100e+01   5.0643614e+03
 1.0516780e+01   5.0722305e+03
 1.0521460e+01   5.0885229e+03
 1.0526140e+01   5.1006847e+03
 1.0530820e+01   5.1064587e+03
 1.0535500e+01   5.1344966e+03
 1.0540180e+01   5.1374817e+03
 1.0544860e+01   5.1338111e+03
 1.0549540e+01   5.1267565e+03
 1.0554220e+01   5.1401733e+03
 1.0558900e+01   5.1214076e+03
 1.0563580e+01   5.1110770e+03
 1.0568260e+01   5.0993581e+03
 1.0572940e+01   5.0876294e+03
 1.0577620e+01   5.0621553e+03
 1.0582300e+01   5.0491638e+03
 1.0586980e+01   5.0383983e+03
 1.0591660e+01   5.0203378e+03
 1.0596340e+01   5.0098553e+03
 1.0601020e+01   4.9816701e+03
 1.0605700e+01   4.9850818e+03
 1.0610380e+01   4.9813974e+03
 1.0615060e+01   4.9675235e+03
 1.0619740e+01   4.9811751e+03
 1.0624420e+01   4.9533268e+03
 1.0629100e+01   4.9813738e+03
 1.0633780e+01   4.9555554e+03
 1.0638460e+01   4.9698183e+03
 1.0643140e+01   4.9541894e+03
 1.0647820e+01   4.9597909e+03
 1.0652500e+01   4.9614050e+03
 1.0657180e+01   4.9678254e+03
 1.0661860e+01   4.9641939e+03
 1.0666540e+01   4.9828620e+03
 1.0671220e+01   4.9924551e+03
 1.0675900e+01   5.0033132e+03
 1.0680580e+01   5.0259933e+03
 1.0685260e+01   5.0390956e+03
 1.0689940e+01   5.0880940e+03
 1.0694620e+01   5.0956451e+03
 1.0699300e+01   5.1539306e+03
 1.0703980e+01   5.1814430e+03
 1.0708660e+01   5.2260884e+03
 1.0713340e+01   5.2703531e+03
 1.0718020e+01   5.3045966e+03
 1.0722700e+01   5.3231393e+03
 1.0727380e+01   5.3627742e+03
 1.0732060e+01   5.3400547e+03
 1.0736740e+01   5.3513865e+03
 1.0741420e+01   5.3227434e+03
 1.0746100e+01   5.3019414e+03
 1.0750780e+01   5.2672522e+03
 1.0755460e+01   5.2182547e+03
 1.0760140e+01   5.1672821e+03
 1.0764820e+01   5.1349151e+03
 1.0769500e+01   5.0909004e+03
 1.0774180e+01   5.0620033e+03
 1.0778860e+01   5.0329628e+03
 1.0783540e+01   4.9922019e+03
 1.0788220e+01   4.9890562e+03
 1.0792900e+01   4.9473973e+03
 1.0797580e+01   4.9382081e+03
 1.0802260e+01   4.9373594e+03
 1.0806940e+01   4.9110928e+03
 1.0811620e+01   4.9167801e+03
 1.0816300e+01   4.8993707e+03
 1.0820980e+01   4.8940905e+03
 1.0825660e+01   4.8883942e+03
 1.0830340e+01   4.8898239e+03
 1.0835020e+01   4.8789560e+03
 1.0839700e+01   4.8777250e+03
 1.0844380e+01   4.8776423e+03
 1.0849060e+01   4.8685532e+03
 1.0853740e+01   4.8511542e+03
 1.0858420e+01   4.8569536e+03
 1.0863100e+01   4.8525014e+03
 1.0867780e+01   4.8403868e+03
 1.0872460e+01   4.8366348e+03
 1.0877140e+01   4.8263495e+03
 1.0881820e+01   4.8174857e+03
 1.0886500e+01   4.8147872e+03
 1.0891180e+01   4.8015395e+03
 1.0895860e+01   4.7974295e+03
 1.0900540e+01   4.7904296e+03
 1.0905220e+01   4.7828474e+03
 1.0909900e+01   4.7824010e+03
 1.0914580e+01   4.7759158e+03
 1.0919260e+01   4.7728139e+03
 1.0923940e+01   4.7586747e+03
 1.0928620e+01   4.7593836e+03
 1.0933300e+01   4.7607273e+03
 1.0937980e+01   4.7597307e+03
 1.0942660e+01   4.7472522e+03
 1.0947340e+01   4.7527907e+03
 1.0952020e+01   4.7481916e+03
 1.0956700e+01   4.7467903e+03
 1.0961380e+01   4.7582706e+03
 1.0966060e+01   4.7346653e+03
 1.0970740e+01   4.7510016e+03
 1.0975420e+01   4.7344734e+03
 1.0980100e+01   4.7413366e+03
 1.0984780e+01   4.7383391e+03
 1.0989460e+01   4.7412892e+03
 1.0994140e+01   4.7327024e+03
 1.0998820e+01   4.7393439e+03
 1.1003500e+01   4.7332927e+03
 1.1008180e+01   4.7471522e+03
 1.1012860e+01   4.7418709e+03
 1.1017540e+01   4.7444174e+03
 1.1022220e+01   4.7552802e+03
 1.1026900e+01   4.7473892e+03
 1.1031580e+01   4.7684640e+03
 1.1036260e+01   4.7647054e+03
 1.1040940e+01   4.7760792e+03
 1.1045620e+01   4.8017033e+03
 1.1050300e+01   4.8079226e+03
 1.1054980e+01   4.8302033e+03
 1.1059660e+01   4.8659057e+03
 1.1064340e+01   4.8907049e+03
 1.1069020e+01   4.9270756e+03
 1.1073700e+01   4.9902834e+03
 1.1078380e+01   5.0450264e+03
 1.1083060e+01   5.1201496e+03
 1.1087740e+01   5.2009726e+03
 1.1092420e+01   5.2980886e+03
 1.1097100e+01   5.4090746e+03
 1.1101780e+01   5.4950800e+03
 1.1106460e+01   5.5791528e+03
 1.1111140e+01   5.6611093e+03
 1.1115820e+01   5.7131216e+03
 1.1120500e+01   5.7363415e+03
 1.1125180e+01   5.7219563e+03
 1.1129860e+01   5.6728091e+03
 1.1134540e+01   5.6173593e+03
 1.1139220e+01   5.5292907e+03
 1.1143900e+01   5.4365659e+03
 1.1148580e+01   5.3378715e+03
 1.1153260e+01   5.2461317e+03
 1.1157940e+01   5.1517803e+03
 1.1162620e+01   5.0723815e+03
 1.1167300e+01   4.9968086e+03
 1.1171980e+01   4.9441643e+03
 1.1176660e+01   4.8835503e+03
 1.1181340e+01   4.8554705e+03
 1.1186020e+01   4.8067939e+03
 1.1190700e+01   4.7851131e+03
 1.1195380e+01   4.7577431e+03
 1.1200060e+01   4.7332143e+03
 1.1204740e+01   4.7321537e+03
 1.1209420e+01   4.7193880e+03
 1.1214100e+01   4.7151190e+03
 1.1218780e+01   4.7117616e+03
 1.1223460e+01   4.7154530e+03
 1.1228140e+01   4.7139175e+03
 1.1232820e+01   4.7134031e+03
 1.1237500e+01   4.7174989e+03
 1.1242180e+01   4.7244432e+03
 1.1246860e+01   4.7209893e+03
 1.1251540e+01   4.7201998e+03
 1.1256220e+01   4.7227891e+03
 1.1260900e+01   4.7148400e+03
 1.1265580e+01   4.7153168e+03
 1.1270260e+01   4.7058453e+03
 1.1274940e+01   4.6918347e+03
 1.1279620e+01   4.6991899e+03
 1.1284300e+01   4.6865287e+03
 1.1288980e+01   4.6843767e+03
 1.1293660e+01   4.6714154e+03
 1.1298340e+01   4.6531398e+03
 1.1303020e+01   4.6522258e+03
 1.1307700e+01   4.6234156e+03
 1.1312380e+01   4.6203844e+03
 1.1317060e+01   4.6132720e+03
 1.1321740e+01   4.5841847e+03
 1.1326420e+01   4.5753800e+03
 1.1331100e+01   4.5665293e+03
 1.1335780e+01   4.5522241e+03
 1.1340460e+01   4.5442135e+03
 1.1345140e+01   4.5477014e+03
 1.1349820e+01   4.5284419e+03
 1.1354500e+01   4.5448843e+03
 1.1359180e+01   4.5277587e+03
 1.1363860e+01   4.5333123e+03
 1.1368540e+01   4.5269381e+03
 1.1373220e+01   4.5279196e+03
 1.1377900e+01   4.5320174e+03
 1.1382580e+01   4.5257785e+03
 1.1387260e+01   4.5209632e+03
 1.1391940e+01   4.5293690e+03
 1.1396620e+01   4.5201456e+03
 1.1401300e+01   4.5266878e+03
 1.1405980e+01   4.5329874e+03
 1.1410660e+01   4.5253914e+03
 1.1415340e+01   4.5304703e+03
 1.1420020e+01   4.5308914e+03
 1.1424700e+01   4.5410951e+03
 1.1429380e+01   4.5610944e+03
 1.1434060e+01   4.5538882e+03
 1.1438740e+01   4.5802233e+03
 1.1443420e+01   4.5809362e+03
 1.1448100e+01   4.5871475e+03
 1.1452780e+01   4.6205722e+03
 1.1457460e+01   4.6171040e+03
 1.1462140e+01   4.6384678e+03
 1.1466820e+01   4.6810471e+03
 1.1471500e+01   4.6949645e+03
 1.1476180e+01   4.7423612e+03
 1.1480860e+01   4.7603966e+03
 1.1485540e+01   4.7938829e+03
 1.1490220e+01   4.8462412e+03
 1.1494900e+01   4.8779720e+03
 1.1499580e+01   4.9239942e+03
 1.1504260e+01   4.9547106e+03
 1.1508940e+01   4.9772572e+03
 1.1513620e+01   4.9937725e+03
 1.1518300e+01   4.9992882e+03
 1.1522980e+01   4.9903380e+03
 1.1527660e+01   4.9754486e+03
 1.1532340e+01   4.9357558e+03
 1.1537020e+01   4.9049676e+03
 1.1541700e+01   4.8546762e+03
 1.1546380e+01   4.7955630e+03
 1.1551060e+01   4.7518248e+03
 1.1555740e+01   4.6984975e+03
 1.1560420e+01   4.6650769e+03
 1.1565100e+01   4.6168915e+03
 1.1569780e+01   4.5793338e+03
 1.1574460e+01   4.5581699e+03
 1.1579140e+01   4.5244417e+03
 1.1583820e+01   4.4962833e+03
 1.1588500e+01   4.4888671e+03
 1.1593180e+01   4.4645713e+03
 1.1597860e+01   4.4718775e+03
 1.1602540e+01   4.4552100e+03
 1.1607220e+01   4.4476155e+03
 1.1611900e+01   4.4392214e+03
 1.1616580e+01   4.4262490e+03
 1.1621260e+01   4.4380924e+03
 1.1625940e+01   4.4138484e+03
 1.1630620e+01   4.4254258e+03
 1.1635300e+01   4.4203549e+03
 1.1639980e+01   4.4060840e+03
 1.1644660e+01   4.4020444e+03
 1.1649340e+01   4.4027017e+03
 1.1654020e+01   4.3847359e+03
 1.1658700e+01   4.3842830e+03
 1.1663380e+01   4.3796200e+03
 1.1668060e+01   4.3665565e+03
 1.1672740e+01   4.3663020e+03
 1.1677420e+01   4.3645203e+03
 1.1682100e+01   4.3579771e+03
 1.1686780e+01   4.3477423e+03
 1.1691460e+01   4.3426015e+03
 1.1696140e+01   4.3523983e+03
 1.1700820e+01   4.3429734e+03
 1.1705500e+01   4.3479803e+03
 1.1710180e+01   4.3381729e+03
 1.1714860e+01   4.3352641e+03
 1.1719540e+01   4.3312075e+03
 1.1724220e+01   4.3364990e+03
 1.1728900e+01   4.3249941e+03
 1.1733580e+01   4.3217733e+03
 1.1738260e+01   4.3236601e+03
 1.1742940e+01   4.3189396e+03
 1.1747620e+01   4.3193939e+03
 1.1752300e+01   4.3110477e+03
 1.1756980e+01   4.3114344e+03
 1.1761660e+01   4.3204718e+03
 1.1766340e+01   4.3028876e+03
 1.1771020e+01   4.3125589e+03
 1.1775700e+01   4.3016399e+03
 1.1780380e+01   4.3037155e+03
 1.1785060e+01   4.2999535e+03
 1.1789740e+01   4.2999257e+03
 1.1794420e+01   4.3059712e+03
 1.1799100e+01   4.2939521e+03
 1.1803780e+01   4.2992472e+03
 1.1808460e+01   4.2977676e+03
 1.1813140e+01   4.2840504e+03
 1.1817820e+01   4.2934209e+03
 1.1822500e+01   4.2945195e+03
 1.1827180e+01   4.2877389e+03
 1.1831860e+01   4.2914457e+03
 1.1836540e+01   4.2889398e+03
 1.1841220e+01   4.2953931e+03
 1.1845900e+01   4.2933797e+03
 1.1850580e+01   4.2888636e+03
 1.1855260e+01   4.3045552e+03
 1.1859940e+01   4.3047694e+03
 1.1864620e+01   4.3242669e+03
 1.1869300e+01   4.3387607e+03
 1.1873980e+01   4.3648083e+03
 1.1878660e+01   4.3823642e+03
 1.1883340e+01   4.3798929e+03
 1.1888020e+01   4.4078310e+03
 1.1892700e+01   4.4309844e+03
 1.1897380e+01   4.4619796e+03
 1.1902060e+01   4.4856615e+03
 1.1906740e+01   4.4995488e+03
 1.1911420e+01   4.4897570e+03
 1.1916100e+01   4.4715563e+03
 1.1920780e+01   4.4337298e+03
 1.1925460e+01   4.4235176e+03
 1.1930140e+01   4.3985628e+03
 1.1934820e+01   4.4050067e+03
 1.1939500e+01   4.4082405e+03
 1.1944180e+01   4.3812614e+03
 1.1948860e+01   4.3836724e+03
 1.1953540e+01   4.3906886e+03
 1.1958220e+01   4.4042767e+03
 1.1962900e+01   4.4083022e+03
 1.1967580e+01   4.4456971e+03
 1.1972260e+01   4.4684523e+03
 1.1976940e+01   4.5165852e+03
 1.1981620e+01   4.5356520e+03
 1.1986300e+01   4.5694545e+03
 1.1990980e+01   4.6048631e+03
 1.1995660e+01   4.6242603e+03
 1.2000340e+01   4.6462142e+03
 1.2005020e+01   4.6394251e+03
 1.2009700e+01   4.6442838e+03
 1.2014380e+01   4.6206045e+03
 1.2019060e+01   4.6030892e+03
 1.2023740e+01   4.5686942e+03
 1.2028420e+01   4.5404900e+03
 1.2033100e+01   4.5081547e+03
 1.2037780e+01   4.4965847e+03
 1.2042460e+01   4.4780386e+03
 1.2047140e+01   4.4542770e+03
 1.2051820e+01   4.4614535e+03
 1.2056500e+01   4.4532210e+03
 1.2061180e+01   4.4688729e+03
 1.2065860e+01   4.4830720e+03
 1.2070540e+01   4.5134928e+03
 1.2075220e+01   4.5449965e+03
 1.2079900e+01   4.6011084e+03
 1.2084580e+01   4.6523317e+03
 1.2089260e+01   4.7231423e+03
 1.2093940e+01   4.7895969e+03
 1.2098620e+01   4.8811294e+03
 1.2103300e+01   4.9659022e+03
 1.2107980e+01   5.0547704e+03
 1.2112660e+01   5.1437831e+03
 1.2117340e+01   5.1984170e+03
 1.2122020e+01   5.2506912e+03
 1.2126700e+01   5.2601893e+03
 1.2131380e+01   5.2306965e+03
 1.2136060e+01   5.2017860e+03
 1.2140740e+01   5.1517816e+03
 1.2145420e+01   5.0672000e+03
 1.2150100e+01   4.9772297e+03
 1.2154780e+01   4.8742364e+03
 1.2159460e+01   4.7948979e+03
 1.2164140e+01   4.6895970e+03
 1.2168820e+01   4.6041442e+03
 1.2173500e+01   4.5208928e+03
 1.2178180e+01   4.4616373e+03
 1.2182860e+01   4.4070401e+03
 1.2187540e+01   4.3606661e+03
 1.2192220e+01   4.3227205e+03
 1.2196900e+01   4.2762269e+03
 1.2201580e+01   4.2595116e+03
 1.2206260e+01   4.2211551e+03
 1.2210940e+01   4.2091192e+03
 1.2215620e+01   4.1849119e+03
 1.2220300e+01   4.1757817e+03
 1.2224980e+01   4.1631087e+03
 1.2229660e+01   4.1464141e+03
 1.2234340e+01   4.1431604e+03
 1.2239020e+01   4.1367246e+03
 1.2243700e+01   4.1310882e+03
 1.2248380e+01   4.1125849e+03
 1.2253060e+01   4.1181910e+03
 1.2257740e+01   4.1036174e+03
 1.2262420e+01   4.1049195e+03
 1.2267100e+01   4.0872251e+03
 1.2271780e+01   4.0951581e+03
 1.2276460e+01   4.0850446e+03
 1.2281140e+01   4.0857877e+03
 1.2285820e+01   4.0904796e+03
 1.2290500e+01   4.0863842e+03
 1.2295180e+01   4.0702326e+03
 1.2299860e+01   4.0773908e+03
 1.2304540e+01   4.0724237e+03
 1.2309220e+01   4.0858529e+03
 1.2313900e+01   4.0806782e+03
 1.2318580e+01   4.0752764e+03
 1.2323260e+01   4.0873278e+03
 1.2327940e+01   4.0782030e+03
 1.2332620e+01   4.0917160e+03
 1.2337300e+01   4.1040201e+03
 1.2341980e+01   4.1047170e+03
 1.2346660e+01   4.1309525e+03
 1.2351340e+01   4.1358148e+03
 1.2356020e+01   4.1547874e+03
 1.2360700e+01   4.1702915e+03
 1.2365380e+01   4.1883697e+03
 1.2370060e+01   4.2096377e+03
 1.2374740e+01   4.2438977e+03
 1.2379420e+01   4.2684369e+03
 1.2384100e+01   4.2819682e+03
 1.2388780e+01   4.2976495e+03
 1.2393460e+01   4.3239143e+03
 1.2398140e+01   4.3403205e+03
 1.2402820e+01   4.3541581e+03
 1.2407500e+01   4.3765917e+03
 1.2412180e+01   4.3762699e+03
 1.2416860e+01   4.4053047e+03
 1.2421540e+01   4.4224451e+03
 1.2426220e+01   4.4413065e+03
 1.2430900e+01   4.4619830e+03
 1.2435580e+01   4.4939558e+03
 1.2440260e+01   4.5352668e+03
 1.2444940e+01   4.5642759e+03
 1.2449620e+01   4.6071889e+03
 1.2454300e+01   4.6284165e+03
 1.2458980e+01   4.6674997e+03
 1.2463660e+01   4.6868249e+03
 1.2468340e+01   4.7098998e+03
 1.2473020e+01   4.7155496e+03
 1.2477700e+01   4.7141340e+03
 1.2482380e+01   4.7051699e+03
 1.2487060e+01   4.6828825e+03
 1.2491740e+01   4.6555100e+03
 1.2496420e+01   4.6174246e+03
 1.2501100e+01   4.5652139e+03
 1.2505780e+01   4.5286193e+03
 1.2510460e+01   4.4682025e+03
 1.2515140e+01   4.4274324e+03
 1.2519820e+01   4.3688801e+03
 1.2524500e+01   4.3181227e+03
 1.2529180e+01   4.2707957e+03
 1.2533860e+01   4.2310094e+03
 1.2538540e+01   4.2009789e+03
 1.2543220e+01   4.1683520e+03
 1.2547900e+01   4.1505882e+03
 1.2552580e+01   4.1215092e+03
 1.2557260e+01   4.0953095e+03
 1.2561940e+01   4.0852499e+03
 1.2566620e+01   4.0656661e+03
 1.2571300e+01   4.0550363e+03
 1.2575980e+01   4.0312180e+03
 1.2580660e+01   4.0364332e+03
 1.2585340e+01   4.0190376e+03
 1.2590020e+01   4.0170873e+03
 1.2594700e+01   4.0090630e+03
 1.2599380e+01   4.0008311e+03
 1.2604060e+01   4.0009708e+03
 1.2608740e+01   4.0046674e+03
 1.2613420e+01   3.9841231e+03
 1.2618100e+01   3.9953816e+03
 1.2622780e+01   3.9912262e+03
 1.2627460e+01   3.9878559e+03
 1.2632140e+01   3.9982398e+03
 1.2636820e+01   4.0038189e+03
 1.2641500e+01   4.0110586e+03
 1.2646180e+01   4.0146063e+03
 1.2650860e+01   4.0299535e+03
 1.2655540e+01   4.0470337e+03
 1.2660220e+01   4.0681066e+03
 1.2664900e+01   4.0721691e+03
 1.2669580e+01   4.1063713e+03
 1.2674260e+01   4.1359386e+03
 1.2678940e+01   4.1842715e+03
 1.2683620e+01   4.2281021e+03
 1.2688300e+01   4.2747527e+03
 1.2692980e+01   4.3482072e+03
 1.2697660e+01   4.4078546e+03
