MA2-00002.tif Azm= 0.00
2-Theta Angle (Degrees)
Intensity
       2500
 1.0023400e+00   7.9819425e+03
 1.0070200e+00   7.8942701e+03
 1.0117000e+00   7.9111833e+03
 1.0163800e+00   7.9054406e+03
 1.0210600e+00   7.8141733e+03
 1.0257400e+00   7.8240934e+03
 1.0304199e+00   7.8080387e+03
 1.0351000e+00   7.7391122e+03
 1.0397800e+00   7.7388898e+03
 1.0444601e+00   7.7181576e+03
 1.0491400e+00   7.6834010e+03
 1.0538200e+00   7.7325937e+03
 1.0585001e+00   7.6364307e+03
 1.0631800e+00   7.6587663e+03
 1.0678600e+00   7.6151738e+03
 1.0725400e+00   7.5911619e+03
 1.0772200e+00   7.5521647e+03
 1.0819000e+00   7.5316861e+03
 1.0865800e+00   7.5329833e+03
 1.0912600e+00   7.4962114e+03
 1.0959400e+00   7.4444641e+03
 1.1006200e+00   7.4542203e+03
 1.1052999e+00   7.4268052e+03
 1.1099800e+00   7.4086973e+03
 1.1146600e+00   7.4103956e+03
 1.1193399e+00   7.4149117e+03
 1.1240200e+00   7.3862273e+03
 1.1287000e+00   7.3744025e+03
 1.1333801e+00   7.3572404e+03
 1.1380600e+00   7.3102280e+03
 1.1427400e+00   7.3174714e+03
 1.1474200e+00   7.2901394e+03
 1.1521000e+00   7.3124326e+03
 1.1567800e+00   7.2885187e+03
 1.1614600e+00   7.2342629e+03
 1.1661400e+00   7.2653766e+03
 1.1708200e+00   7.2592984e+03
 1.1755000e+00   7.2174339e+03
 1.1801800e+00   7.2241152e+03
 1.1848600e+00   7.2057910e+03
 1.1895400e+00   7.2144731e+03
 1.1942199e+00   7.2457719e+03
 1.1989000e+00   7.1839687e+03
 1.2035800e+00   7.1893426e+03
 1.2082601e+00   7.1827399e+03
 1.2129400e+00   7.1615941e+03
 1.2176200e+00   7.1719991e+03
 1.2223001e+00   7.1897190e+03
 1.2269800e+00   7.1859184e+03
 1.2316600e+00   7.1510984e+03
 1.2363400e+00   7.1741611e+03
 1.2410200e+00   7.1462508e+03
 1.2457000e+00   7.1699223e+03
 1.2503800e+00   7.1544591e+03
 1.2550600e+00   7.1766725e+03
 1.2597400e+00   7.1542385e+03
 1.2644200e+00   7.1271790e+03
 1.2691000e+00   7.1302200e+03
 1.2737800e+00   7.1626636e+03
 1.2784600e+00   7.1508898e+03
 1.2831399e+00   7.1241007e+03
 1.2878200e+00   7.1286527e+03
 1.2925000e+00   7.1444375e+03
 1.2971801e+00   7.1309099e+03
 1.3018600e+00   7.1731063e+03
 1.3065400e+00   7.1274710e+03
 1.3112200e+00   7.1360941e+03
 1.3159000e+00   7.1558398e+03
 1.3205800e+00   7.1476717e+03
 1.3252600e+00   7.1588006e+03
 1.3299400e+00   7.1806633e+03
 1.3346200e+00   7.1459706e+03
 1.3393000e+00   7.1860664e+03
 1.3439800e+00   7.1681473e+03
 1.3486600e+00   7.1996203e+03
 1.3533400e+00   7.1991574e+03
 1.3580199e+00   7.1804379e+03
 1.3627000e+00   7.1852861e+03
 1.3673800e+00   7.1895789e+03
 1.3720599e+00   7.1870799e+03
 1.3767400e+00   7.2338403e+03
 1.3814200e+00   7.2376075e+03
 1.3861001e+00   7.2542931e+03
 1.3907800e+00   7.2672626e+03
 1.3954600e+00   7.2690149e+03
 1.4001400e+00   7.3034256e+03
 1.4048200e+00   7.3142072e+03
 1.4095000e+00   7.3000802e+03
 1.4141800e+00   7.3380391e+03
 1.4188600e+00   7.3410603e+03
 1.4235400e+00   7.3565297e+03
 1.4282200e+00   7.3956079e+03
 1.4329000e+00   7.3855026e+03
 1.4375800e+00   7.4102123e+03
 1.4422600e+00   7.4538998e+03
 1.4469399e+00   7.4680098e+03
 1.4516200e+00   7.5216446e+03
 1.4563000e+00   7.5129677e+03
 1.4609801e+00   7.5206770e+03
 1.4656600e+00   7.5832913e+03
 1.4703400e+00   7.5709495e+03
 1.4750201e+00   7.5967424e+03
 1.4797000e+00   7.6660623e+03
 1.4843800e+00   7.6457586e+03
 1.4890600e+00   7.6681490e+03
 1.4937400e+00   7.6600298e+03
 1.4984200e+00   7.7117412e+03
 1.5031000e+00   7.7263947e+03
 1.5077800e+00   7.7538935e+03
 1.5124600e+00   7.7367458e+03
 1.5171400e+00   7.7547552e+03
 1.5218199e+00   7.7615714e+03
 1.5265000e+00   7.7467913e+03
 1.5311800e+00   7.7477348e+03
 1.5358599e+00   7.7679572e+03
 1.5405400e+00   7.7524896e+03
 1.5452200e+00   7.7506339e+03
 1.5499001e+00   7.7574808e+03
 1.5545800e+00   7.7444564e+03
 1.5592600e+00   7.7144922e+03
 1.5639400e+00   7.6951977e+03
 1.5686200e+00   7.7347417e+03
 1.5733000e+00   7.7022279e+03
 1.5779800e+00   7.7438469e+03
 1.5826600e+00   7.7050428e+03
 1.5873400e+00   7.6941649e+03
 1.5920200e+00   7.6663998e+03
 1.5967000e+00   7.6801547e+03
 1.6013800e+00   7.6657558e+03
 1.6060600e+00   7.6736410e+03
 1.6107399e+00   7.6792207e+03
 1.6154200e+00   7.6767111e+03
 1.6201000e+00   7.7000747e+03
 1.6247801e+00   7.6722762e+03
 1.6294600e+00   7.6807410e+03
 1.6341400e+00   7.6695252e+03
 1.6388201e+00   7.6960872e+03
 1.6435000e+00   7.6660532e+03
 1.6481800e+00   7.6641285e+03
 1.6528600e+00   7.6881600e+03
 1.6575400e+00   7.6810026e+03
 1.6622200e+00   7.6964334e+03
 1.6669000e+00   7.6713562e+03
 1.6715800e+00   7.6941990e+03
 1.6762600e+00   7.6985837e+03
 1.6809400e+00   7.6976679e+03
 1.6856200e+00   7.6937467e+03
 1.6903000e+00   7.7087599e+03
 1.6949800e+00   7.7149044e+03
 1.6996599e+00   7.7239323e+03
 1.7043400e+00   7.7108879e+03
 1.7090200e+00   7.7369933e+03
 1.7137001e+00   7.7360857e+03
 1.7183800e+00   7.7085665e+03
 1.7230600e+00   7.7601314e+03
 1.7277400e+00   7.7161965e+03
 1.7324200e+00   7.7389927e+03
 1.7371000e+00   7.7696556e+03
 1.7417800e+00   7.7436031e+03
 1.7464600e+00   7.7580480e+03
 1.7511400e+00   7.7436397e+03
 1.7558200e+00   7.7875235e+03
 1.7605000e+00   7.7832280e+03
 1.7651800e+00   7.7806909e+03
 1.7698600e+00   7.7934390e+03
 1.7745399e+00   7.7905730e+03
 1.7792200e+00   7.8277774e+03
 1.7839000e+00   7.8489118e+03
 1.7885799e+00   7.8346154e+03
 1.7932600e+00   7.8310613e+03
 1.7979400e+00   7.8671777e+03
 1.8026201e+00   7.8644188e+03
 1.8073000e+00   7.8780901e+03
 1.8119800e+00   7.9090878e+03
 1.8166600e+00   7.8899121e+03
 1.8213400e+00   7.9366405e+03
 1.8260200e+00   7.9527837e+03
 1.8307000e+00   7.9567921e+03
 1.8353800e+00   8.0038634e+03
 1.8400600e+00   8.0120143e+03
 1.8447400e+00   8.0229623e+03
 1.8494200e+00   8.0339593e+03
 1.8541000e+00   8.0588752e+03
 1.8587800e+00   8.0613396e+03
 1.8634599e+00   8.1003354e+03
 1.8681400e+00   8.1038104e+03
 1.8728200e+00   8.1498908e+03
 1.8775001e+00   8.1436163e+03
 1.8821800e+00   8.1786073e+03
 1.8868600e+00   8.2035315e+03
 1.8915401e+00   8.2294514e+03
 1.8962200e+00   8.2530137e+03
 1.9009000e+00   8.2388267e+03
 1.9055800e+00   8.2737741e+03
 1.9102600e+00   8.3288140e+03
 1.9149400e+00   8.3132823e+03
 1.9196200e+00   8.3650046e+03
 1.9243000e+00   8.3986509e+03
 1.9289800e+00   8.4356575e+03
 1.9336600e+00   8.4212431e+03
 1.9383399e+00   8.4336470e+03
 1.9430200e+00   8.4718751e+03
 1.9477000e+00   8.5002747e+03
 1.9523799e+00   8.5030188e+03
 1.9570600e+00   8.5066101e+03
 1.9617400e+00   8.5733256e+03
 1.9664201e+00   8.5715094e+03
 1.9711000e+00   8.5882992e+03
 1.9757800e+00   8.6326609e+03
 1.9804600e+00   8.6607014e+03
 1.9851400e+00   8.6752856e+03
 1.9898200e+00   8.7106502e+03
 1.9945000e+00   8.7312855e+03
 1.9991800e+00   8.7360463e+03
 2.0038600e+00   8.7400709e+03
 2.0085399e+00   8.7911023e+03
 2.0132201e+00   8.8262267e+03
 2.0179000e+00   8.8126442e+03
 2.0225799e+00   8.8447925e+03
 2.0272601e+00   8.8710428e+03
 2.0319400e+00   8.8927457e+03
 2.0366199e+00   8.9010634e+03
 2.0413001e+00   8.9429188e+03
 2.0459800e+00   8.9598234e+03
 2.0506599e+00   8.9794956e+03
 2.0553401e+00   8.9911108e+03
 2.0600200e+00   9.0255403e+03
 2.0646999e+00   9.0511005e+03
 2.0693800e+00   9.0583419e+03
 2.0740600e+00   9.1018651e+03
 2.0787399e+00   9.0998826e+03
 2.0834200e+00   9.1484537e+03
 2.0881000e+00   9.1592539e+03
 2.0927801e+00   9.2178063e+03
 2.0974600e+00   9.2722370e+03
 2.1021399e+00   9.3199164e+03
 2.1068201e+00   9.3387853e+03
 2.1115000e+00   9.3805189e+03
 2.1161799e+00   9.3898267e+03
 2.1208601e+00   9.4146048e+03
 2.1255400e+00   9.4334601e+03
 2.1302199e+00   9.4375675e+03
 2.1349001e+00   9.4846776e+03
 2.1395800e+00   9.4963057e+03
 2.1442599e+00   9.5404152e+03
 2.1489401e+00   9.5878786e+03
 2.1536200e+00   9.6236848e+03
 2.1582999e+00   9.6819291e+03
 2.1629801e+00   9.7403518e+03
 2.1676600e+00   9.8143766e+03
 2.1723399e+00   9.8873538e+03
 2.1770201e+00   9.9658628e+03
 2.1817000e+00   1.0074664e+04
 2.1863799e+00   1.0214450e+04
 2.1910601e+00   1.0354306e+04
 2.1957400e+00   1.0537274e+04
 2.2004199e+00   1.0822221e+04
 2.2051001e+00   1.1187942e+04
 2.2097800e+00   1.1721535e+04
 2.2144599e+00   1.2433269e+04
 2.2191401e+00   1.3604616e+04
 2.2238200e+00   1.5036652e+04
 2.2284999e+00   1.7133686e+04
 2.2331800e+00   1.9678051e+04
 2.2378600e+00   2.2574364e+04
 2.2425399e+00   2.5124200e+04
 2.2472200e+00   2.7131150e+04
 2.2519000e+00   2.7831310e+04
 2.2565801e+00   2.7300049e+04
 2.2612600e+00   2.5625068e+04
 2.2659400e+00   2.2969082e+04
 2.2706201e+00   2.0146008e+04
 2.2753000e+00   1.7569890e+04
 2.2799799e+00   1.5549423e+04
 2.2846601e+00   1.3920638e+04
 2.2893400e+00   1.2847421e+04
 2.2940199e+00   1.2125824e+04
 2.2987001e+00   1.1624250e+04
 2.3033800e+00   1.1382690e+04
 2.3080599e+00   1.1143734e+04
 2.3127401e+00   1.1025688e+04
 2.3174200e+00   1.0931641e+04
 2.3220999e+00   1.0893623e+04
 2.3267801e+00   1.0858594e+04
 2.3314600e+00   1.0827975e+04
 2.3361399e+00   1.0811059e+04
 2.3408201e+00   1.0828719e+04
 2.3455000e+00   1.0848905e+04
 2.3501799e+00   1.0846827e+04
 2.3548601e+00   1.0861636e+04
 2.3595400e+00   1.0910853e+04
 2.3642199e+00   1.0907908e+04
 2.3689001e+00   1.0949012e+04
 2.3735800e+00   1.0949212e+04
 2.3782599e+00   1.0993806e+04
 2.3829401e+00   1.1025340e+04
 2.3876200e+00   1.1068677e+04
 2.3922999e+00   1.1086940e+04
 2.3969800e+00   1.1107341e+04
 2.4016600e+00   1.1148218e+04
 2.4063399e+00   1.1161371e+04
 2.4110200e+00   1.1233353e+04
 2.4157000e+00   1.1234257e+04
 2.4203801e+00   1.1292205e+04
 2.4250600e+00   1.1306149e+04
 2.4297400e+00   1.1337855e+04
 2.4344201e+00   1.1372121e+04
 2.4391000e+00   1.1448226e+04
 2.4437799e+00   1.1440410e+04
 2.4484601e+00   1.1491652e+04
 2.4531400e+00   1.1551169e+04
 2.4578199e+00   1.1579917e+04
 2.4625001e+00   1.1623986e+04
 2.4671800e+00   1.1639122e+04
 2.4718599e+00   1.1681707e+04
 2.4765401e+00   1.1730436e+04
 2.4812200e+00   1.1759361e+04
 2.4858999e+00   1.1784983e+04
 2.4905801e+00   1.1863575e+04
 2.4952600e+00   1.1869245e+04
 2.4999399e+00   1.1896472e+04
 2.5046201e+00   1.1957791e+04
 2.5093000e+00   1.1994894e+04
 2.5139799e+00   1.2016905e+04
 2.5186601e+00   1.2051365e+04
 2.5233400e+00   1.2078182e+04
 2.5280199e+00   1.2147763e+04
 2.5327001e+00   1.2165825e+04
 2.5373800e+00   1.2206616e+04
 2.5420599e+00   1.2232404e+04
 2.5467401e+00   1.2262516e+04
 2.5514200e+00   1.2302530e+04
 2.5560999e+00   1.2347002e+04
 2.5607800e+00   1.2373597e+04
 2.5654600e+00   1.2409196e+04
 2.5701399e+00   1.2445140e+04
 2.5748200e+00   1.2503584e+04
 2.5795000e+00   1.2511561e+04
 2.5841801e+00   1.2543994e+04
 2.5888600e+00   1.2586551e+04
 2.5935400e+00   1.2618015e+04
 2.5982201e+00   1.2654845e+04
 2.6029000e+00   1.2656639e+04
 2.6075799e+00   1.2683222e+04
 2.6122601e+00   1.2695506e+04
 2.6169400e+00   1.2729748e+04
 2.6216199e+00   1.2739617e+04
 2.6263001e+00   1.2775456e+04
 2.6309800e+00   1.2801473e+04
 2.6356599e+00   1.2834718e+04
 2.6403401e+00   1.2821854e+04
 2.6450200e+00   1.2860535e+04
 2.6496999e+00   1.2862664e+04
 2.6543801e+00   1.2904508e+04
 2.6590600e+00   1.2894210e+04
 2.6637399e+00   1.2909740e+04
 2.6684201e+00   1.2926268e+04
 2.6731000e+00   1.2956786e+04
 2.6777799e+00   1.2973399e+04
 2.6824601e+00   1.2952565e+04
 2.6871400e+00   1.2991091e+04
 2.6918199e+00   1.2977042e+04
 2.6965001e+00   1.3003896e+04
 2.7011800e+00   1.3019756e+04
 2.7058599e+00   1.3026082e+04
 2.7105401e+00   1.3041546e+04
 2.7152200e+00   1.3044529e+04
 2.7198999e+00   1.3037911e+04
 2.7245800e+00   1.3046243e+04
 2.7292600e+00   1.3034204e+04
 2.7339399e+00   1.3035978e+04
 2.7386200e+00   1.3022094e+04
 2.7433000e+00   1.3031491e+04
 2.7479801e+00   1.3010971e+04
 2.7526600e+00   1.3021909e+04
 2.7573400e+00   1.3003175e+04
 2.7620201e+00   1.3002712e+04
 2.7667000e+00   1.3009884e+04
 2.7713799e+00   1.2999069e+04
 2.7760601e+00   1.2984140e+04
 2.7807400e+00   1.2974485e+04
 2.7854199e+00   1.2960835e+04
 2.7901001e+00   1.2971900e+04
 2.7947800e+00   1.2960277e+04
 2.7994599e+00   1.2945353e+04
 2.8041401e+00   1.2925421e+04
 2.8088200e+00   1.2904430e+04
 2.8134999e+00   1.2879836e+04
 2.8181801e+00   1.2878722e+04
 2.8228600e+00   1.2855913e+04
 2.8275399e+00   1.2858497e+04
 2.8322201e+00   1.2851431e+04
 2.8369000e+00   1.2824321e+04
 2.8415799e+00   1.2794759e+04
 2.8462601e+00   1.2779950e+04
 2.8509400e+00   1.2781323e+04
 2.8556199e+00   1.2757685e+04
 2.8603001e+00   1.2746296e+04
 2.8649800e+00   1.2731711e+04
 2.8696599e+00   1.2716187e+04
 2.8743401e+00   1.2697452e+04
 2.8790200e+00   1.2689101e+04
 2.8836999e+00   1.2656507e+04
 2.8883801e+00   1.2653367e+04
 2.8930600e+00   1.2638327e+04
 2.8977399e+00   1.2631332e+04
 2.9024200e+00   1.2591610e+04
 2.9071000e+00   1.2578702e+04
 2.9117801e+00   1.2545678e+04
 2.9164600e+00   1.2529317e+04
 2.9211400e+00   1.2519748e+04
 2.9258201e+00   1.2485099e+04
 2.9305000e+00   1.2496412e+04
 2.9351799e+00   1.2443132e+04
 2.9398601e+00   1.2424764e+04
 2.9445400e+00   1.2413255e+04
 2.9492199e+00   1.2380994e+04
 2.9539001e+00   1.2367341e+04
 2.9585800e+00   1.2337986e+04
 2.9632599e+00   1.2325972e+04
 2.9679401e+00   1.2289301e+04
 2.9726200e+00   1.2270785e+04
 2.9772999e+00   1.2249881e+04
 2.9819801e+00   1.2233470e+04
 2.9866600e+00   1.2192836e+04
 2.9913399e+00   1.2169717e+04
 2.9960201e+00   1.2136017e+04
 3.0007000e+00   1.2119396e+04
 3.0053799e+00   1.2086419e+04
 3.0100601e+00   1.2081531e+04
 3.0147400e+00   1.2031872e+04
 3.0194199e+00   1.2008094e+04
 3.0241001e+00   1.1996546e+04
 3.0287800e+00   1.1972151e+04
 3.0334599e+00   1.1946311e+04
 3.0381401e+00   1.1891169e+04
 3.0428200e+00   1.1886343e+04
 3.0474999e+00   1.1858821e+04
 3.0521801e+00   1.1822589e+04
 3.0568600e+00   1.1800627e+04
 3.0615399e+00   1.1743894e+04
 3.0662200e+00   1.1724171e+04
 3.0709000e+00   1.1704937e+04
 3.0755799e+00   1.1667018e+04
 3.0802600e+00   1.1670723e+04
 3.0849400e+00   1.1600772e+04
 3.0896201e+00   1.1603251e+04
 3.0943000e+00   1.1558421e+04
 3.0989799e+00   1.1546954e+04
 3.1036601e+00   1.1504766e+04
 3.1083400e+00   1.1504322e+04
 3.1130199e+00   1.1487053e+04
 3.1177001e+00   1.1454343e+04
 3.1223800e+00   1.1447122e+04
 3.1270599e+00   1.1401067e+04
 3.1317401e+00   1.1398263e+04
 3.1364200e+00   1.1373534e+04
 3.1410999e+00   1.1355982e+04
 3.1457801e+00   1.1329155e+04
 3.1504600e+00   1.1314264e+04
 3.1551399e+00   1.1301202e+04
 3.1598201e+00   1.1289904e+04
 3.1645000e+00   1.1251858e+04
 3.1691799e+00   1.1227646e+04
 3.1738601e+00   1.1222113e+04
 3.1785400e+00   1.1198454e+04
 3.1832199e+00   1.1199724e+04
 3.1879001e+00   1.1194116e+04
 3.1925800e+00   1.1142636e+04
 3.1972599e+00   1.1141484e+04
 3.2019401e+00   1.1129624e+04
 3.2066200e+00   1.1100879e+04
 3.2112999e+00   1.1092905e+04
 3.2159801e+00   1.1067590e+04
 3.2206600e+00   1.1049364e+04
 3.2253399e+00   1.1035194e+04
 3.2300200e+00   1.1005045e+04
 3.2347000e+00   1.1009026e+04
 3.2393799e+00   1.0973547e+04
 3.2440600e+00   1.0967980e+04
 3.2487400e+00   1.0969548e+04
 3.2534201e+00   1.0934214e+04
 3.2581000e+00   1.0930484e+04
 3.2627800e+00   1.0936134e+04
 3.2674601e+00   1.0929919e+04
 3.2721400e+00   1.0913978e+04
 3.2768199e+00   1.0912290e+04
 3.2815001e+00   1.0873444e+04
 3.2861800e+00   1.0895089e+04
 3.2908599e+00   1.0859035e+04
 3.2955401e+00   1.0864326e+04
 3.3002200e+00   1.0862730e+04
 3.3048999e+00   1.0850578e+04
 3.3095801e+00   1.0854435e+04
 3.3142600e+00   1.0860622e+04
 3.3189399e+00   1.0814067e+04
 3.3236201e+00   1.0846819e+04
 3.3283000e+00   1.0815977e+04
 3.3329799e+00   1.0801681e+04
 3.3376601e+00   1.0818925e+04
 3.3423400e+00   1.0807425e+04
 3.3470199e+00   1.0787489e+04
 3.3517001e+00   1.0808732e+04
 3.3563800e+00   1.0763401e+04
 3.3610599e+00   1.0801200e+04
 3.3657401e+00   1.0772349e+04
 3.3704200e+00   1.0762540e+04
 3.3750999e+00   1.0762630e+04
 3.3797801e+00   1.0769486e+04
 3.3844600e+00   1.0753388e+04
 3.3891399e+00   1.0755762e+04
 3.3938200e+00   1.0736947e+04
 3.3985000e+00   1.0744871e+04
 3.4031799e+00   1.0769138e+04
 3.4078600e+00   1.0747562e+04
 3.4125400e+00   1.0767622e+04
 3.4172201e+00   1.0763561e+04
 3.4219000e+00   1.0761957e+04
 3.4265800e+00   1.0793698e+04
 3.4312601e+00   1.0749962e+04
 3.4359400e+00   1.0781782e+04
 3.4406199e+00   1.0784268e+04
 3.4453001e+00   1.0751095e+04
 3.4499800e+00   1.0787518e+04
 3.4546599e+00   1.0785584e+04
 3.4593401e+00   1.0789819e+04
 3.4640200e+00   1.0805272e+04
 3.4686999e+00   1.0777357e+04
 3.4733801e+00   1.0773557e+04
 3.4780600e+00   1.0787683e+04
 3.4827399e+00   1.0794953e+04
 3.4874201e+00   1.0784922e+04
 3.4921000e+00   1.0783215e+04
 3.4967799e+00   1.0767032e+04
 3.5014601e+00   1.0759879e+04
 3.5061400e+00   1.0781089e+04
 3.5108199e+00   1.0743425e+04
 3.5155001e+00   1.0780148e+04
 3.5201800e+00   1.0766397e+04
 3.5248599e+00   1.0738884e+04
 3.5295401e+00   1.0773072e+04
 3.5342200e+00   1.0723624e+04
 3.5388999e+00   1.0747028e+04
 3.5435801e+00   1.0785181e+04
 3.5482600e+00   1.0728629e+04
 3.5529399e+00   1.0766867e+04
 3.5576200e+00   1.0742911e+04
 3.5623000e+00   1.0761788e+04
 3.5669799e+00   1.0770358e+04
 3.5716600e+00   1.0737148e+04
 3.5763400e+00   1.0751390e+04
 3.5810201e+00   1.0773434e+04
 3.5857000e+00   1.0716492e+04
 3.5903800e+00   1.0764023e+04
 3.5950601e+00   1.0764884e+04
 3.5997400e+00   1.0729212e+04
 3.6044199e+00   1.0741918e+04
 3.6091001e+00   1.0725137e+04
 3.6137800e+00   1.0684684e+04
 3.6184599e+00   1.0762758e+04
 3.6231401e+00   1.0713243e+04
 3.6278200e+00   1.0707283e+04
 3.6324999e+00   1.0736817e+04
 3.6371801e+00   1.0679052e+04
 3.6418600e+00   1.0727679e+04
 3.6465399e+00   1.0693079e+04
 3.6512201e+00   1.0643181e+04
 3.6559000e+00   1.0716411e+04
 3.6605799e+00   1.0604265e+04
 3.6652601e+00   1.0614556e+04
 3.6699400e+00   1.0682381e+04
 3.6746199e+00   1.0533565e+04
 3.6793001e+00   1.0582201e+04
 3.6839800e+00   1.0603808e+04
 3.6886599e+00   1.0511976e+04
 3.6933401e+00   1.0559285e+04
 3.6980200e+00   1.0482330e+04
 3.7026999e+00   1.0425822e+04
 3.7073801e+00   1.0509538e+04
 3.7120600e+00   1.0403725e+04
 3.7167399e+00   1.0374790e+04
 3.7214200e+00   1.0375780e+04
 3.7261000e+00   1.0226968e+04
 3.7307799e+00   1.0259799e+04
 3.7354600e+00   1.0228438e+04
 3.7401400e+00   1.0147591e+04
 3.7448201e+00   1.0165766e+04
 3.7495000e+00   1.0112893e+04
 3.7541800e+00   1.0003147e+04
 3.7588601e+00   1.0068057e+04
 3.7635400e+00   9.9090689e+03
 3.7682199e+00   9.9570556e+03
 3.7729001e+00   9.9281846e+03
 3.7775800e+00   9.8039548e+03
 3.7822599e+00   9.8004038e+03
 3.7869401e+00   9.8137046e+03
 3.7916200e+00   9.6357268e+03
 3.7962999e+00   9.8208474e+03
 3.8009801e+00   9.6662409e+03
 3.8056600e+00   9.6247809e+03
 3.8103399e+00   9.6791557e+03
 3.8150201e+00   9.5678465e+03
 3.8197000e+00   9.5366788e+03
 3.8243799e+00   9.6460446e+03
 3.8290601e+00   9.5225024e+03
 3.8337400e+00   9.5632855e+03
 3.8384199e+00   9.5686235e+03
 3.8431001e+00   9.3795992e+03
 3.8477800e+00   9.5538071e+03
 3.8524599e+00   9.4084885e+03
 3.8571401e+00   9.4062198e+03
 3.8618200e+00   9.3813790e+03
 3.8664999e+00   9.3011380e+03
 3.8711801e+00   9.2620740e+03
 3.8758600e+00   9.2659445e+03
 3.8805399e+00   9.1650564e+03
 3.8852201e+00   9.2340044e+03
 3.8899000e+00   9.1453802e+03
 3.8945799e+00   9.0942943e+03
 3.8992600e+00   9.1027299e+03
 3.9039400e+00   9.0789885e+03
 3.9086201e+00   8.9778243e+03
 3.9133000e+00   9.0256646e+03
 3.9179800e+00   8.9195682e+03
 3.9226601e+00   8.9415739e+03
 3.9273400e+00   8.9305100e+03
 3.9320199e+00   8.8702946e+03
 3.9367001e+00   8.8422558e+03
 3.9413800e+00   8.8284211e+03
 3.9460599e+00   8.7699371e+03
 3.9507401e+00   8.7951049e+03
 3.9554200e+00   8.7859383e+03
 3.9600999e+00   8.7195483e+03
 3.9647801e+00   8.7106554e+03
 3.9694600e+00   8.6966058e+03
 3.9741399e+00   8.6502293e+03
 3.9788201e+00   8.6531088e+03
 3.9835000e+00   8.6260713e+03
 3.9881799e+00   8.5851557e+03
 3.9928601e+00   8.5512024e+03
 3.9975400e+00   8.4885553e+03
 4.0022202e+00   8.5387242e+03
 4.0068998e+00   8.4512371e+03
 4.0115800e+00   8.4711604e+03
 4.0162601e+00   8.4561144e+03
 4.0209398e+00   8.4068331e+03
 4.0256200e+00   8.3405551e+03
 4.0303001e+00   8.3931053e+03
 4.0349798e+00   8.3296786e+03
 4.0396600e+00   8.4133969e+03
 4.0443401e+00   8.2998221e+03
 4.0490198e+00   8.3034152e+03
 4.0537000e+00   8.3404990e+03
 4.0583801e+00   8.2608180e+03
 4.0630598e+00   8.2740181e+03
 4.0677400e+00   8.2828358e+03
 4.0724201e+00   8.1896721e+03
 4.0770998e+00   8.2177712e+03
 4.0817800e+00   8.1788325e+03
 4.0864601e+00   8.1504060e+03
 4.0911398e+00   8.2261365e+03
 4.0958200e+00   8.0868384e+03
 4.1005001e+00   8.1199707e+03
 4.1051798e+00   8.1050771e+03
 4.1098599e+00   8.0680328e+03
 4.1145401e+00   8.1121342e+03
 4.1192198e+00   8.0599449e+03
 4.1238999e+00   7.9717091e+03
 4.1285801e+00   8.0978145e+03
 4.1332598e+00   7.9648908e+03
 4.1379399e+00   8.0213001e+03
 4.1426201e+00   7.9931110e+03
 4.1472998e+00   7.8986468e+03
 4.1519799e+00   7.9392547e+03
 4.1566601e+00   7.9436191e+03
 4.1613402e+00   7.8485316e+03
 4.1660199e+00   7.9702035e+03
 4.1707001e+00   7.8382066e+03
 4.1753802e+00   7.8423799e+03
 4.1800599e+00   7.8674483e+03
 4.1847401e+00   7.8187465e+03
 4.1894202e+00   7.8705997e+03
 4.1940999e+00   7.8246212e+03
 4.1987801e+00   7.7674149e+03
 4.2034602e+00   7.8617622e+03
 4.2081399e+00   7.7773425e+03
 4.2128201e+00   7.7695589e+03
 4.2175002e+00   7.8929560e+03
 4.2221799e+00   7.7696946e+03
 4.2268600e+00   7.7814026e+03
 4.2315402e+00   7.8011545e+03
 4.2362199e+00   7.6798875e+03
 4.2409000e+00   7.7647748e+03
 4.2455802e+00   7.7347053e+03
 4.2502599e+00   7.6167166e+03
 4.2549400e+00   7.7597298e+03
 4.2596202e+00   7.6738187e+03
 4.2642999e+00   7.7426684e+03
 4.2689800e+00   7.7301280e+03
 4.2736602e+00   7.6979265e+03
 4.2783399e+00   7.6775517e+03
 4.2830200e+00   7.7386119e+03
 4.2877002e+00   7.6901338e+03
 4.2923799e+00   7.7273618e+03
 4.2970600e+00   7.7133068e+03
 4.3017402e+00   7.6665503e+03
 4.3064198e+00   7.7035617e+03
 4.3111000e+00   7.6912367e+03
 4.3157802e+00   7.7351468e+03
 4.3204598e+00   7.6858106e+03
 4.3251400e+00   7.6664708e+03
 4.3298202e+00   7.7241068e+03
 4.3344998e+00   7.6876039e+03
 4.3391800e+00   7.6646012e+03
 4.3438601e+00   7.6972539e+03
 4.3485398e+00   7.6709836e+03
 4.3532200e+00   7.6254946e+03
 4.3579001e+00   7.6789194e+03
 4.3625798e+00   7.5668517e+03
 4.3672600e+00   7.6387101e+03
 4.3719401e+00   7.5754766e+03
 4.3766198e+00   7.5952160e+03
 4.3813000e+00   7.6258491e+03
 4.3859801e+00   7.6373148e+03
 4.3906598e+00   7.5658004e+03
 4.3953400e+00   7.6252702e+03
 4.4000201e+00   7.5700022e+03
 4.4046998e+00   7.6612959e+03
 4.4093800e+00   7.5820340e+03
 4.4140601e+00   7.5949106e+03
 4.4187398e+00   7.6018588e+03
 4.4234200e+00   7.5882992e+03
 4.4281001e+00   7.5324873e+03
 4.4327798e+00   7.6450852e+03
 4.4374599e+00   7.5714626e+03
 4.4421401e+00   7.6212229e+03
 4.4468198e+00   7.6377240e+03
 4.4514999e+00   7.6382302e+03
 4.4561801e+00   7.7410725e+03
 4.4608598e+00   7.8198818e+03
 4.4655399e+00   7.9443908e+03
 4.4702201e+00   8.1676311e+03
 4.4748998e+00   8.4014337e+03
 4.4795799e+00   8.7029247e+03
 4.4842601e+00   9.1389687e+03
 4.4889398e+00   9.5473935e+03
 4.4936199e+00   9.9995723e+03
 4.4983001e+00   1.0369214e+04
 4.5029802e+00   1.0584343e+04
 4.5076599e+00   1.0617695e+04
 4.5123401e+00   1.0475371e+04
 4.5170202e+00   1.0062909e+04
 4.5216999e+00   9.6363738e+03
 4.5263801e+00   9.0976300e+03
 4.5310602e+00   8.6156733e+03
 4.5357399e+00   8.2302472e+03
 4.5404201e+00   7.8505325e+03
 4.5451002e+00   7.6144625e+03
 4.5497799e+00   7.4468747e+03
 4.5544600e+00   7.2956594e+03
 4.5591402e+00   7.1967086e+03
 4.5638199e+00   7.1147388e+03
 4.5685000e+00   7.0267255e+03
 4.5731802e+00   7.0286244e+03
 4.5778599e+00   6.9721143e+03
 4.5825400e+00   6.9644107e+03
 4.5872202e+00   6.9266693e+03
 4.5918999e+00   6.8915062e+03
 4.5965800e+00   6.8722734e+03
 4.6012602e+00   6.8485494e+03
 4.6059399e+00   6.8298141e+03
 4.6106200e+00   6.8206028e+03
 4.6153002e+00   6.8004078e+03
 4.6199799e+00   6.7640509e+03
 4.6246600e+00   6.7653664e+03
 4.6293402e+00   6.7451030e+03
 4.6340199e+00   6.7479765e+03
 4.6387000e+00   6.7262610e+03
 4.6433802e+00   6.7192843e+03
 4.6480598e+00   6.7162390e+03
 4.6527400e+00   6.7122097e+03
 4.6574202e+00   6.6916946e+03
 4.6620998e+00   6.7357038e+03
 4.6667800e+00   6.7460357e+03
 4.6714602e+00   6.7429975e+03
 4.6761398e+00   6.8156654e+03
 4.6808200e+00   6.8748114e+03
 4.6855001e+00   6.9875460e+03
 4.6901798e+00   7.1693728e+03
 4.6948600e+00   7.4190481e+03
 4.6995401e+00   7.7683036e+03
 4.7042198e+00   8.2420641e+03
 4.7089000e+00   8.7484662e+03
 4.7135801e+00   9.3185447e+03
 4.7182598e+00   9.8071136e+03
 4.7229400e+00   1.0168118e+04
 4.7276201e+00   1.0246023e+04
 4.7322998e+00   1.0123438e+04
 4.7369800e+00   9.7530883e+03
 4.7416601e+00   9.2701399e+03
 4.7463398e+00   8.7363739e+03
 4.7510200e+00   8.2372914e+03
 4.7557001e+00   7.7724436e+03
 4.7603798e+00   7.4102153e+03
 4.7650599e+00   7.1429187e+03
 4.7697401e+00   6.9326680e+03
 4.7744198e+00   6.7999192e+03
 4.7790999e+00   6.6927220e+03
 4.7837801e+00   6.6037384e+03
 4.7884598e+00   6.5608675e+03
 4.7931399e+00   6.5207304e+03
 4.7978201e+00   6.4926044e+03
 4.8024998e+00   6.4659911e+03
 4.8071799e+00   6.4488888e+03
 4.8118601e+00   6.4318978e+03
 4.8165398e+00   6.4313339e+03
 4.8212199e+00   6.4446972e+03
 4.8259001e+00   6.4552484e+03
 4.8305802e+00   6.4705342e+03
 4.8352599e+00   6.4834135e+03
 4.8399401e+00   6.5499951e+03
 4.8446202e+00   6.5895344e+03
 4.8492999e+00   6.7045729e+03
 4.8539801e+00   6.8350666e+03
 4.8586602e+00   7.0602777e+03
 4.8633399e+00   7.3646056e+03
 4.8680201e+00   7.7968354e+03
 4.8727002e+00   8.3760539e+03
 4.8773799e+00   9.1960475e+03
 4.8820601e+00   1.0113517e+04
 4.8867402e+00   1.1127479e+04
 4.8914199e+00   1.2084250e+04
 4.8961000e+00   1.2865520e+04
 4.9007802e+00   1.3222326e+04
 4.9054599e+00   1.3122044e+04
 4.9101400e+00   1.2688662e+04
 4.9148202e+00   1.1829640e+04
 4.9194999e+00   1.0904713e+04
 4.9241800e+00   9.8656168e+03
 4.9288602e+00   9.0088326e+03
 4.9335399e+00   8.2621752e+03
 4.9382200e+00   7.7238667e+03
 4.9429002e+00   7.2540115e+03
 4.9475799e+00   6.9548392e+03
 4.9522600e+00   6.7132907e+03
 4.9569402e+00   6.5801661e+03
 4.9616199e+00   6.4714030e+03
 4.9663000e+00   6.4006350e+03
 4.9709802e+00   6.3267991e+03
 4.9756598e+00   6.2777022e+03
 4.9803400e+00   6.2513125e+03
 4.9850202e+00   6.2255376e+03
 4.9896998e+00   6.1795515e+03
 4.9943800e+00   6.1632474e+03
 4.9990602e+00   6.1491823e+03
 5.0037398e+00   6.1334532e+03
 5.0084200e+00   6.1108171e+03
 5.0131001e+00   6.1294868e+03
 5.0177798e+00   6.1114404e+03
 5.0224600e+00   6.0994877e+03
 5.0271401e+00   6.1071230e+03
 5.0318198e+00   6.0876212e+03
 5.0365000e+00   6.1152929e+03
 5.0411801e+00   6.0894249e+03
 5.0458598e+00   6.1057727e+03
 5.0505400e+00   6.1229572e+03
 5.0552201e+00   6.1351743e+03
 5.0598998e+00   6.1593298e+03
 5.0645800e+00   6.1722825e+03
 5.0692601e+00   6.2063874e+03
 5.0739398e+00   6.2660113e+03
 5.0786200e+00   6.3713343e+03
 5.0833001e+00   6.5096244e+03
 5.0879798e+00   6.6272114e+03
 5.0926600e+00   6.7525471e+03
 5.0973401e+00   6.8491489e+03
 5.1020198e+00   7.2928529e+03
 5.1066999e+00   7.6195771e+03
 5.1113801e+00   7.7131693e+03
 5.1160598e+00   7.5830620e+03
 5.1207399e+00   7.7888512e+03
 5.1254201e+00   8.4198901e+03
 5.1300998e+00   9.8556547e+03
 5.1347799e+00   1.0961347e+04
 5.1394601e+00   1.2357655e+04
 5.1441398e+00   1.2869706e+04
 5.1488199e+00   1.2981810e+04
 5.1535001e+00   1.1912892e+04
 5.1581802e+00   1.1022002e+04
 5.1628599e+00   9.7175330e+03
 5.1675401e+00   8.6339314e+03
 5.1722202e+00   7.6539661e+03
 5.1768999e+00   7.0408129e+03
 5.1815801e+00   6.6052297e+03
 5.1862602e+00   6.5455645e+03
 5.1909399e+00   6.6447915e+03
 5.1956201e+00   6.5374817e+03
 5.2003002e+00   6.4522061e+03
 5.2049799e+00   6.2494109e+03
 5.2096601e+00   6.2273967e+03
 5.2143402e+00   6.1819525e+03
 5.2190199e+00   6.1363102e+03
 5.2237000e+00   6.0996530e+03
 5.2283802e+00   6.0262060e+03
 5.2330599e+00   6.0096266e+03
 5.2377400e+00   5.9578603e+03
 5.2424202e+00   5.9297223e+03
 5.2470999e+00   5.9191389e+03
 5.2517800e+00   5.8836063e+03
 5.2564602e+00   5.8622914e+03
 5.2611399e+00   5.8751220e+03
 5.2658200e+00   5.8476883e+03
 5.2705002e+00   5.8412350e+03
 5.2751799e+00   5.8272809e+03
 5.2798600e+00   5.8350696e+03
 5.2845402e+00   5.8042974e+03
 5.2892199e+00   5.8030927e+03
 5.2939000e+00   5.8044828e+03
 5.2985802e+00   5.7853218e+03
 5.3032598e+00   5.7805233e+03
 5.3079400e+00   5.7804430e+03
 5.3126202e+00   5.7742630e+03
 5.3172998e+00   5.7798654e+03
 5.3219800e+00   5.7825556e+03
 5.3266602e+00   5.7593834e+03
 5.3313398e+00   5.7693696e+03
 5.3360200e+00   5.7499497e+03
 5.3407001e+00   5.7400569e+03
 5.3453798e+00   5.7513158e+03
 5.3500600e+00   5.7463475e+03
 5.3547401e+00   5.7407268e+03
 5.3594198e+00   5.7406312e+03
 5.3641000e+00   5.7355140e+03
 5.3687801e+00   5.7459897e+03
 5.3734598e+00   5.7348490e+03
 5.3781400e+00   5.7413268e+03
 5.3828201e+00   5.7342883e+03
 5.3874998e+00   5.7376213e+03
 5.3921800e+00   5.7413871e+03
 5.3968601e+00   5.7616767e+03
 5.4015398e+00   5.7612988e+03
 5.4062200e+00   5.7729238e+03
 5.4109001e+00   5.7657125e+03
 5.4155798e+00   5.7699929e+03
 5.4202600e+00   5.8020569e+03
 5.4249401e+00   5.8115983e+03
 5.4296198e+00   5.8227122e+03
 5.4342999e+00   5.8637642e+03
 5.4389801e+00   5.8663521e+03
 5.4436598e+00   5.9091498e+03
 5.4483399e+00   5.9416601e+03
 5.4530201e+00   5.9777409e+03
 5.4576998e+00   6.0303600e+03
 5.4623799e+00   6.0942812e+03
 5.4670601e+00   6.1573021e+03
 5.4717398e+00   6.2623681e+03
 5.4764199e+00   6.3814382e+03
 5.4811001e+00   6.5760374e+03
 5.4857798e+00   6.7684758e+03
 5.4904599e+00   7.0533869e+03
 5.4951401e+00   7.4035391e+03
 5.4998202e+00   7.8927709e+03
 5.5044999e+00   8.6151730e+03
 5.5091801e+00   9.5657371e+03
 5.5138602e+00   1.0885360e+04
 5.5185399e+00   1.2636960e+04
 5.5232201e+00   1.4945496e+04
 5.5279002e+00   1.7710112e+04
 5.5325799e+00   2.0930621e+04
 5.5372601e+00   2.4121414e+04
 5.5419402e+00   2.7070310e+04
 5.5466199e+00   2.9010755e+04
 5.5513000e+00   2.9697980e+04
 5.5559802e+00   2.9132401e+04
 5.5606599e+00   2.7166648e+04
 5.5653400e+00   2.4398324e+04
 5.5700202e+00   2.1247170e+04
 5.5746999e+00   1.8109598e+04
 5.5793800e+00   1.5315456e+04
 5.5840602e+00   1.3012858e+04
 5.5887399e+00   1.1203254e+04
 5.5934200e+00   9.8751500e+03
 5.5981002e+00   8.8239433e+03
 5.6027799e+00   8.1050155e+03
 5.6074600e+00   7.5460844e+03
 5.6121402e+00   7.1638144e+03
 5.6168199e+00   6.8466218e+03
 5.6215000e+00   6.6373790e+03
 5.6261802e+00   6.4640048e+03
 5.6308599e+00   6.3212424e+03
 5.6355400e+00   6.1963954e+03
 5.6402202e+00   6.1158071e+03
 5.6448998e+00   6.0406870e+03
 5.6495800e+00   6.0136982e+03
 5.6542602e+00   5.9368277e+03
 5.6589398e+00   5.9049585e+03
 5.6636200e+00   5.8860229e+03
 5.6683002e+00   5.8486917e+03
 5.6729798e+00   5.8281694e+03
 5.6776600e+00   5.7934358e+03
 5.6823401e+00   5.7610419e+03
 5.6870198e+00   5.7601133e+03
 5.6917000e+00   5.7323348e+03
 5.6963801e+00   5.7337003e+03
 5.7010598e+00   5.7331682e+03
 5.7057400e+00   5.7136457e+03
 5.7104201e+00   5.7103321e+03
 5.7150998e+00   5.7014494e+03
 5.7197800e+00   5.6981664e+03
 5.7244601e+00   5.7040974e+03
 5.7291398e+00   5.6942042e+03
 5.7338200e+00   5.7012140e+03
 5.7385001e+00   5.7124770e+03
 5.7431798e+00   5.7089601e+03
 5.7478600e+00   5.7433246e+03
 5.7525401e+00   5.7381229e+03
 5.7572198e+00   5.7453975e+03
 5.7618999e+00   5.7399772e+03
 5.7665801e+00   5.7331850e+03
 5.7712598e+00   5.7279433e+03
 5.7759399e+00   5.7291763e+03
 5.7806201e+00   5.7172340e+03
 5.7852998e+00   5.7188879e+03
 5.7899799e+00   5.7087953e+03
 5.7946601e+00   5.7008763e+03
 5.7993398e+00   5.7004358e+03
 5.8040199e+00   5.7065433e+03
 5.8087001e+00   5.6984763e+03
 5.8133798e+00   5.6879258e+03
 5.8180599e+00   5.6657857e+03
 5.8227401e+00   5.6556115e+03
 5.8274202e+00   5.6562593e+03
 5.8320999e+00   5.6501699e+03
 5.8367801e+00   5.6503444e+03
 5.8414602e+00   5.6422948e+03
 5.8461399e+00   5.6396171e+03
 5.8508201e+00   5.6453839e+03
 5.8555002e+00   5.6502911e+03
 5.8601799e+00   5.6711127e+03
 5.8648601e+00   5.6825061e+03
 5.8695402e+00   5.6825981e+03
 5.8742199e+00   5.7006326e+03
 5.8789001e+00   5.7252829e+03
 5.8835802e+00   5.7586099e+03
 5.8882599e+00   5.8041148e+03
 5.8929400e+00   5.8188038e+03
 5.8976202e+00   5.8830437e+03
 5.9022999e+00   5.9283076e+03
 5.9069800e+00   6.0397176e+03
 5.9116602e+00   6.2175989e+03
 5.9163399e+00   6.3757294e+03
 5.9210200e+00   6.5454549e+03
 5.9257002e+00   6.5698794e+03
 5.9303799e+00   6.8214290e+03
 5.9350600e+00   7.2973510e+03
 5.9397402e+00   7.5800249e+03
 5.9444199e+00   7.6401154e+03
 5.9491000e+00   7.5221055e+03
 5.9537802e+00   7.2777519e+03
 5.9584599e+00   6.9136458e+03
 5.9631400e+00   6.7687442e+03
 5.9678202e+00   6.7396745e+03
 5.9724998e+00   6.6441373e+03
 5.9771800e+00   6.5744734e+03
 5.9818602e+00   6.5110268e+03
 5.9865398e+00   6.4889306e+03
 5.9912200e+00   6.4606847e+03
 5.9959002e+00   6.4110425e+03
 6.0005798e+00   6.3525665e+03
 6.0052600e+00   6.2422090e+03
 6.0099401e+00   6.1709242e+03
 6.0146198e+00   6.0841754e+03
 6.0193000e+00   5.9843647e+03
 6.0239801e+00   5.9589254e+03
 6.0286598e+00   5.8754843e+03
 6.0333400e+00   5.8313424e+03
 6.0380201e+00   5.8240058e+03
 6.0426998e+00   5.7719986e+03
 6.0473800e+00   5.7656076e+03
 6.0520601e+00   5.7578583e+03
 6.0567398e+00   5.7242608e+03
 6.0614200e+00   5.7429884e+03
 6.0661001e+00   5.7091489e+03
 6.0707798e+00   5.7117673e+03
 6.0754600e+00   5.7417359e+03
 6.0801401e+00   5.7125714e+03
 6.0848198e+00   5.7023324e+03
 6.0895000e+00   5.7340522e+03
 6.0941801e+00   5.7087869e+03
 6.0988598e+00   5.7220583e+03
 6.1035399e+00   5.7302722e+03
 6.1082201e+00   5.7087602e+03
 6.1128998e+00   5.7389020e+03
 6.1175799e+00   5.7215562e+03
 6.1222601e+00   5.7132948e+03
 6.1269398e+00   5.7213776e+03
 6.1316199e+00   5.7215472e+03
 6.1363001e+00   5.7213953e+03
 6.1409798e+00   5.7373586e+03
 6.1456599e+00   5.7154848e+03
 6.1503401e+00   5.7490056e+03
 6.1550202e+00   5.7347789e+03
 6.1596999e+00   5.7340546e+03
 6.1643801e+00   5.7387082e+03
 6.1690602e+00   5.7391543e+03
 6.1737399e+00   5.7491589e+03
 6.1784201e+00   5.7656073e+03
 6.1831002e+00   5.7371628e+03
 6.1877799e+00   5.7764207e+03
 6.1924601e+00   5.7735465e+03
 6.1971402e+00   5.7654753e+03
 6.2018199e+00   5.7791232e+03
 6.2065001e+00   5.7727119e+03
 6.2111802e+00   5.7713579e+03
 6.2158599e+00   5.8008785e+03
 6.2205400e+00   5.7550702e+03
 6.2252202e+00   5.7824854e+03
 6.2298999e+00   5.7938492e+03
 6.2345800e+00   5.7700383e+03
 6.2392602e+00   5.7985419e+03
 6.2439399e+00   5.7827694e+03
 6.2486200e+00   5.7895833e+03
 6.2533002e+00   5.8172590e+03
 6.2579799e+00   5.8117878e+03
 6.2626600e+00   5.8030585e+03
 6.2673402e+00   5.8256384e+03
 6.2720199e+00   5.8114074e+03
 6.2767000e+00   5.8408851e+03
 6.2813802e+00   5.8274842e+03
 6.2860599e+00   5.8330399e+03
 6.2907400e+00   5.8316343e+03
 6.2954202e+00   5.8457368e+03
 6.3000998e+00   5.8256846e+03
 6.3047800e+00   5.8533339e+03
 6.3094602e+00   5.8416377e+03
 6.3141398e+00   5.8509800e+03
 6.3188200e+00   5.8603799e+03
 6.3235002e+00   5.8458862e+03
 6.3281798e+00   5.8907357e+03
 6.3328600e+00   5.8801914e+03
 6.3375401e+00   5.8899987e+03
 6.3422198e+00   5.8870018e+03
 6.3469000e+00   5.8723072e+03
 6.3515801e+00   5.8881497e+03
 6.3562598e+00   5.9075151e+03
 6.3609400e+00   5.8602167e+03
 6.3656201e+00   5.9044785e+03
 6.3702998e+00   5.8802442e+03
 6.3749800e+00   5.8898226e+03
 6.3796601e+00   5.8979145e+03
 6.3843398e+00   5.9074244e+03
 6.3890200e+00   5.8918569e+03
 6.3937001e+00   5.9103321e+03
 6.3983798e+00   5.9001930e+03
 6.4030600e+00   5.8973263e+03
 6.4077401e+00   5.9118990e+03
 6.4124198e+00   5.9146977e+03
 6.4171000e+00   5.9481224e+03
 6.4217801e+00   5.9465595e+03
 6.4264598e+00   5.9423876e+03
 6.4311399e+00   5.9579536e+03
 6.4358201e+00   5.9368471e+03
 6.4404998e+00   5.9716106e+03
 6.4451799e+00   5.9622461e+03
 6.4498601e+00   5.9453293e+03
 6.4545398e+00   5.9730196e+03
 6.4592199e+00   5.9407602e+03
 6.4639001e+00   5.9819361e+03
 6.4685798e+00   5.9906350e+03
 6.4732599e+00   5.9662756e+03
 6.4779401e+00   5.9814284e+03
 6.4826198e+00   5.9669015e+03
 6.4872999e+00   5.9716629e+03
 6.4919801e+00   5.9984879e+03
 6.4966602e+00   6.0143644e+03
 6.5013399e+00   5.9758629e+03
 6.5060201e+00   6.0178023e+03
 6.5107002e+00   5.9871765e+03
 6.5153799e+00   6.0140851e+03
 6.5200601e+00   6.0295325e+03
 6.5247402e+00   6.0220806e+03
 6.5294199e+00   6.0073552e+03
 6.5341001e+00   6.0351583e+03
 6.5387802e+00   6.0222228e+03
 6.5434599e+00   6.0430337e+03
 6.5481400e+00   6.0563541e+03
 6.5528202e+00   6.0590845e+03
 6.5574999e+00   6.0930997e+03
 6.5621800e+00   6.0476499e+03
 6.5668602e+00   6.1005470e+03
 6.5715399e+00   6.1129203e+03
 6.5762200e+00   6.1243206e+03
 6.5809002e+00   6.1242778e+03
 6.5855799e+00   6.1456377e+03
 6.5902600e+00   6.1135765e+03
 6.5949402e+00   6.1626748e+03
 6.5996199e+00   6.1141181e+03
 6.6043000e+00   6.1692607e+03
 6.6089802e+00   6.1536490e+03
 6.6136599e+00   6.1822259e+03
 6.6183400e+00   6.1769122e+03
 6.6230202e+00   6.1900431e+03
 6.6276999e+00   6.1767869e+03
 6.6323800e+00   6.2082898e+03
 6.6370602e+00   6.2091110e+03
 6.6417398e+00   6.1934558e+03
 6.6464200e+00   6.2793656e+03
 6.6511002e+00   6.2189270e+03
 6.6557798e+00   6.2640403e+03
 6.6604600e+00   6.2782125e+03
 6.6651402e+00   6.2896008e+03
 6.6698198e+00   6.2836664e+03
 6.6745000e+00   6.3210972e+03
 6.6791801e+00   6.3050288e+03
 6.6838598e+00   6.3749610e+03
 6.6885400e+00   6.3090740e+03
 6.6932201e+00   6.4026855e+03
 6.6978998e+00   6.3434404e+03
 6.7025800e+00   6.3896682e+03
 6.7072601e+00   6.3939025e+03
 6.7119398e+00   6.4310975e+03
 6.7166200e+00   6.4296786e+03
 6.7213001e+00   6.4365785e+03
 6.7259798e+00   6.4562053e+03
 6.7306600e+00   6.4533534e+03
 6.7353401e+00   6.5254950e+03
 6.7400198e+00   6.4759764e+03
 6.7447000e+00   6.5566359e+03
 6.7493801e+00   6.5082115e+03
 6.7540598e+00   6.5710653e+03
 6.7587399e+00   6.5546384e+03
 6.7634201e+00   6.5781389e+03
 6.7680998e+00   6.5533621e+03
 6.7727799e+00   6.6578708e+03
 6.7774601e+00   6.5531288e+03
 6.7821398e+00   6.5993427e+03
 6.7868199e+00   6.5613962e+03
 6.7915001e+00   6.5950478e+03
 6.7961798e+00   6.5783487e+03
 6.8008599e+00   6.5750431e+03
 6.8055401e+00   6.5821148e+03
 6.8102198e+00   6.5784149e+03
 6.8148999e+00   6.6019771e+03
 6.8195801e+00   6.5911802e+03
 6.8242602e+00   6.6264672e+03
 6.8289399e+00   6.5849182e+03
 6.8336201e+00   6.6456906e+03
 6.8383002e+00   6.5979602e+03
 6.8429799e+00   6.6289266e+03
 6.8476601e+00   6.6413263e+03
 6.8523402e+00   6.6113082e+03
 6.8570199e+00   6.6158677e+03
 6.8617001e+00   6.6348226e+03
 6.8663802e+00   6.6212280e+03
 6.8710599e+00   6.6332096e+03
 6.8757401e+00   6.6302666e+03
 6.8804202e+00   6.6630713e+03
 6.8850999e+00   6.6544386e+03
 6.8897800e+00   6.7096203e+03
 6.8944602e+00   6.6842381e+03
 6.8991399e+00   6.7703372e+03
 6.9038200e+00   6.7253928e+03
 6.9085002e+00   6.7715507e+03
 6.9131799e+00   6.7308913e+03
 6.9178600e+00   6.8167116e+03
 6.9225402e+00   6.7982609e+03
 6.9272199e+00   6.8055929e+03
 6.9319000e+00   6.8086635e+03
 6.9365802e+00   6.8806310e+03
 6.9412599e+00   6.8191038e+03
 6.9459400e+00   6.9128789e+03
 6.9506202e+00   6.9119083e+03
 6.9552999e+00   6.9587374e+03
 6.9599800e+00   6.9764601e+03
 6.9646602e+00   7.0320359e+03
 6.9693398e+00   7.0119830e+03
 6.9740200e+00   7.1273646e+03
 6.9787002e+00   7.1732009e+03
 6.9833798e+00   7.2518248e+03
 6.9880600e+00   7.4000426e+03
 6.9927402e+00   7.5321071e+03
 6.9974198e+00   7.7288049e+03
 7.0021000e+00   7.9131427e+03
 7.0067801e+00   8.2601028e+03
 7.0114598e+00   8.5515736e+03
 7.0161400e+00   8.9161932e+03
 7.0208201e+00   9.1782121e+03
 7.0254998e+00   9.4910659e+03
 7.0301800e+00   9.5625376e+03
 7.0348601e+00   9.6649088e+03
 7.0395398e+00   9.5046395e+03
 7.0442200e+00   9.3454684e+03
 7.0489001e+00   9.0384830e+03
 7.0535798e+00   8.7483944e+03
 7.0582600e+00   8.4369167e+03
 7.0629401e+00   8.2181356e+03
 7.0676198e+00   7.9046881e+03
 7.0723000e+00   7.7466852e+03
 7.0769801e+00   7.5101191e+03
 7.0816598e+00   7.3425695e+03
 7.0863400e+00   7.2358144e+03
 7.0910201e+00   7.0615633e+03
 7.0956998e+00   6.9810277e+03
 7.1003799e+00   6.9194202e+03
 7.1050601e+00   6.8531802e+03
 7.1097398e+00   6.7898792e+03
 7.1144199e+00   6.7669755e+03
 7.1191001e+00   6.7114799e+03
 7.1237798e+00   6.7364835e+03
 7.1284599e+00   6.6703107e+03
 7.1331401e+00   6.6755719e+03
 7.1378198e+00   6.6479526e+03
 7.1424999e+00   6.6326987e+03
 7.1471801e+00   6.6196398e+03
 7.1518602e+00   6.6221074e+03
 7.1565399e+00   6.5851994e+03
 7.1612201e+00   6.6050712e+03
 7.1659002e+00   6.5667046e+03
 7.1705799e+00   6.5596727e+03
 7.1752601e+00   6.5895912e+03
 7.1799402e+00   6.5540715e+03
 7.1846199e+00   6.5543252e+03
 7.1893001e+00   6.5434545e+03
 7.1939802e+00   6.5435035e+03
 7.1986599e+00   6.5182075e+03
 7.2033401e+00   6.5282898e+03
 7.2080202e+00   6.5043298e+03
 7.2126999e+00   6.5322179e+03
 7.2173800e+00   6.4880631e+03
 7.2220602e+00   6.4902517e+03
 7.2267399e+00   6.5059201e+03
 7.2314200e+00   6.4927330e+03
 7.2361002e+00   6.4870664e+03
 7.2407799e+00   6.4904102e+03
 7.2454600e+00   6.4782324e+03
 7.2501402e+00   6.5111971e+03
 7.2548199e+00   6.5042755e+03
 7.2595000e+00   6.5188036e+03
 7.2641802e+00   6.5272137e+03
 7.2688599e+00   6.5238325e+03
 7.2735400e+00   6.5178724e+03
 7.2782202e+00   6.5025197e+03
 7.2828999e+00   6.5151399e+03
 7.2875800e+00   6.5102819e+03
 7.2922602e+00   6.5101757e+03
 7.2969398e+00   6.4834343e+03
 7.3016200e+00   6.5032039e+03
 7.3063002e+00   6.4819833e+03
 7.3109798e+00   6.4888860e+03
 7.3156600e+00   6.4954753e+03
 7.3203402e+00   6.5016643e+03
 7.3250198e+00   6.5261451e+03
 7.3297000e+00   6.5075195e+03
 7.3343801e+00   6.5093263e+03
 7.3390598e+00   6.5223521e+03
 7.3437400e+00   6.5254459e+03
 7.3484201e+00   6.5267488e+03
 7.3530998e+00   6.5366979e+03
 7.3577800e+00   6.5306187e+03
 7.3624601e+00   6.5268631e+03
 7.3671398e+00   6.5196171e+03
 7.3718200e+00   6.5254450e+03
 7.3765001e+00   6.5138569e+03
 7.3811798e+00   6.5115289e+03
 7.3858600e+00   6.4970693e+03
 7.3905401e+00   6.4821979e+03
 7.3952198e+00   6.4672777e+03
 7.3999000e+00   6.4588655e+03
 7.4045801e+00   6.4529413e+03
 7.4092598e+00   6.4263651e+03
 7.4139400e+00   6.4466379e+03
 7.4186201e+00   6.4113546e+03
 7.4232998e+00   6.4237118e+03
 7.4279799e+00   6.4055437e+03
 7.4326601e+00   6.4207571e+03
 7.4373398e+00   6.3955606e+03
 7.4420199e+00   6.4089692e+03
 7.4467001e+00   6.4026082e+03
 7.4513798e+00   6.4105575e+03
 7.4560599e+00   6.4122907e+03
 7.4607401e+00   6.4011205e+03
 7.4654198e+00   6.4105554e+03
 7.4700999e+00   6.4002727e+03
 7.4747801e+00   6.4060782e+03
 7.4794598e+00   6.3989995e+03
 7.4841399e+00   6.4109827e+03
 7.4888201e+00   6.4288745e+03
 7.4935002e+00   6.4207023e+03
 7.4981799e+00   6.4282281e+03
 7.5028601e+00   6.4503161e+03
 7.5075402e+00   6.4436263e+03
 7.5122199e+00   6.4824801e+03
 7.5169001e+00   6.4927866e+03
 7.5215802e+00   6.5145992e+03
 7.5262599e+00   6.5560190e+03
 7.5309401e+00   6.5928219e+03
 7.5356202e+00   6.6415798e+03
 7.5402999e+00   6.6913558e+03
 7.5449800e+00   6.7823980e+03
 7.5496602e+00   6.8721135e+03
 7.5543399e+00   6.9983379e+03
 7.5590200e+00   7.1544563e+03
 7.5637002e+00   7.3865287e+03
 7.5683799e+00   7.6511814e+03
 7.5730600e+00   8.0346138e+03
 7.5777402e+00   8.4688437e+03
 7.5824199e+00   9.0063221e+03
 7.5871000e+00   9.6187026e+03
 7.5917802e+00   1.0291976e+04
 7.5964599e+00   1.0961731e+04
 7.6011400e+00   1.1559754e+04
 7.6058202e+00   1.1965085e+04
 7.6104999e+00   1.2189958e+04
 7.6151800e+00   1.2182680e+04
 7.6198602e+00   1.1857205e+04
 7.6245399e+00   1.1408807e+04
 7.6292200e+00   1.0761637e+04
 7.6339002e+00   1.0090577e+04
 7.6385798e+00   9.3932799e+03
 7.6432600e+00   8.7767065e+03
 7.6479402e+00   8.2507365e+03
 7.6526198e+00   7.8329324e+03
 7.6573000e+00   7.4508677e+03
 7.6619802e+00   7.2027304e+03
 7.6666598e+00   6.9577164e+03
 7.6713400e+00   6.7397685e+03
 7.6760201e+00   6.6069844e+03
 7.6806998e+00   6.5162406e+03
 7.6853800e+00   6.4310641e+03
 7.6900601e+00   6.3636338e+03
 7.6947398e+00   6.3013734e+03
 7.6994200e+00   6.2461138e+03
 7.7041001e+00   6.2302343e+03
 7.7087798e+00   6.1826496e+03
 7.7134600e+00   6.1682763e+03
 7.7181401e+00   6.1213148e+03
 7.7228198e+00   6.1168155e+03
 7.7275000e+00   6.0687535e+03
 7.7321801e+00   6.0547642e+03
 7.7368598e+00   6.0281192e+03
 7.7415400e+00   6.0201254e+03
 7.7462201e+00   5.9853352e+03
 7.7508998e+00   5.9787297e+03
 7.7555799e+00   5.9398951e+03
 7.7602601e+00   5.9614942e+03
 7.7649398e+00   5.9171998e+03
 7.7696199e+00   5.9228346e+03
 7.7743001e+00   5.9028550e+03
 7.7789798e+00   5.8680882e+03
 7.7836599e+00   5.8788439e+03
 7.7883401e+00   5.8548212e+03
 7.7930198e+00   5.8537724e+03
 7.7976999e+00   5.8418498e+03
 7.8023801e+00   5.8337786e+03
 7.8070598e+00   5.8013586e+03
 7.8117399e+00   5.8232020e+03
 7.8164201e+00   5.7782128e+03
 7.8211002e+00   5.7826032e+03
 7.8257799e+00   5.7739050e+03
 7.8304601e+00   5.7491131e+03
 7.8351402e+00   5.7591598e+03
 7.8398199e+00   5.7457084e+03
 7.8445001e+00   5.7206121e+03
 7.8491802e+00   5.7382839e+03
 7.8538599e+00   5.6950960e+03
 7.8585401e+00   5.7051581e+03
 7.8632202e+00   5.7086389e+03
 7.8678999e+00   5.6776466e+03
 7.8725801e+00   5.6980917e+03
 7.8772602e+00   5.6854341e+03
 7.8819399e+00   5.6773732e+03
 7.8866200e+00   5.6806958e+03
 7.8913002e+00   5.6736778e+03
 7.8959799e+00   5.6542113e+03
 7.9006600e+00   5.6500734e+03
 7.9053402e+00   5.6349885e+03
 7.9100199e+00   5.6587787e+03
 7.9147000e+00   5.6222457e+03
 7.9193802e+00   5.6232808e+03
 7.9240599e+00   5.6241605e+03
 7.9287400e+00   5.6100841e+03
 7.9334202e+00   5.6200294e+03
 7.9380999e+00   5.6149290e+03
 7.9427800e+00   5.5968783e+03
 7.9474602e+00   5.6124303e+03
 7.9521399e+00   5.6146514e+03
 7.9568200e+00   5.5941354e+03
 7.9615002e+00   5.6218326e+03
 7.9661798e+00   5.6196357e+03
 7.9708600e+00   5.6078345e+03
 7.9755402e+00   5.6194340e+03
 7.9802198e+00   5.6026729e+03
 7.9849000e+00   5.6296305e+03
 7.9895802e+00   5.6438379e+03
 7.9942598e+00   5.6305095e+03
 7.9989400e+00   5.6835859e+03
 8.0036201e+00   5.6600425e+03
 8.0082998e+00   5.6954853e+03
 8.0129805e+00   5.7492989e+03
 8.0176601e+00   5.7874399e+03
 8.0223398e+00   5.8833193e+03
 8.0270205e+00   5.9986041e+03
 8.0317001e+00   6.1224859e+03
 8.0363798e+00   6.3352247e+03
 8.0410604e+00   6.5348222e+03
 8.0457401e+00   6.9263689e+03
 8.0504198e+00   7.3798343e+03
 8.0551004e+00   7.8556662e+03
 8.0597801e+00   8.5020017e+03
 8.0644598e+00   9.1470396e+03
 8.0691404e+00   9.8459684e+03
 8.0738201e+00   1.0507427e+04
 8.0784998e+00   1.1011067e+04
 8.0831804e+00   1.1297889e+04
 8.0878601e+00   1.1430532e+04
 8.0925398e+00   1.1222932e+04
 8.0972204e+00   1.0912795e+04
 8.1019001e+00   1.0386759e+04
 8.1065798e+00   9.7698198e+03
 8.1112604e+00   9.1225847e+03
 8.1159401e+00   8.5027708e+03
 8.1206198e+00   7.9114751e+03
 8.1253004e+00   7.4421098e+03
 8.1299801e+00   7.0569312e+03
 8.1346598e+00   6.7033611e+03
 8.1393404e+00   6.4543726e+03
 8.1440201e+00   6.2378760e+03
 8.1486998e+00   6.0265209e+03
 8.1533804e+00   5.8645886e+03
 8.1580601e+00   5.7980859e+03
 8.1627398e+00   5.6951391e+03
 8.1674204e+00   5.6425199e+03
 8.1721001e+00   5.5699704e+03
 8.1767797e+00   5.5376674e+03
 8.1814604e+00   5.4778129e+03
 8.1861401e+00   5.4843752e+03
 8.1908197e+00   5.4395539e+03
 8.1955004e+00   5.4154530e+03
 8.2001801e+00   5.4151489e+03
 8.2048597e+00   5.3864910e+03
 8.2095404e+00   5.3798284e+03
 8.2142200e+00   5.3852840e+03
 8.2188997e+00   5.3632197e+03
 8.2235804e+00   5.3628051e+03
 8.2282600e+00   5.3775135e+03
 8.2329397e+00   5.3320975e+03
 8.2376204e+00   5.3713874e+03
 8.2423000e+00   5.3436273e+03
 8.2469797e+00   5.3397743e+03
 8.2516603e+00   5.3278715e+03
 8.2563400e+00   5.3206796e+03
 8.2610197e+00   5.3125458e+03
 8.2657003e+00   5.2942111e+03
 8.2703800e+00   5.2858159e+03
 8.2750597e+00   5.3124385e+03
 8.2797403e+00   5.3019079e+03
 8.2844200e+00   5.2914025e+03
 8.2890997e+00   5.2887853e+03
 8.2937803e+00   5.2672318e+03
 8.2984600e+00   5.3189960e+03
 8.3031397e+00   5.2749356e+03
 8.3078203e+00   5.3135262e+03
 8.3125000e+00   5.3096274e+03
 8.3171797e+00   5.3270102e+03
 8.3218603e+00   5.3284234e+03
 8.3265400e+00   5.4027171e+03
 8.3312197e+00   5.3869602e+03
 8.3359003e+00   5.4549033e+03
 8.3405800e+00   5.5001916e+03
 8.3452597e+00   5.5917361e+03
 8.3499403e+00   5.6999525e+03
 8.3546200e+00   5.8350135e+03
 8.3592997e+00   5.9677737e+03
 8.3639803e+00   6.1806420e+03
 8.3686600e+00   6.4020603e+03
 8.3733397e+00   6.7445633e+03
 8.3780203e+00   7.1191513e+03
 8.3827000e+00   7.5321811e+03
 8.3873796e+00   7.6665944e+03
 8.3920603e+00   7.9127826e+03
 8.3967400e+00   8.1302349e+03
 8.4014196e+00   8.4374220e+03
 8.4061003e+00   8.4815428e+03
 8.4107800e+00   8.3941746e+03
 8.4154596e+00   8.0336155e+03
 8.4201403e+00   7.7307387e+03
 8.4248199e+00   7.0219492e+03
 8.4294996e+00   6.7742498e+03
 8.4341803e+00   6.5390768e+03
 8.4388599e+00   6.3112519e+03
 8.4435396e+00   6.0150695e+03
 8.4482203e+00   5.7486700e+03
 8.4528999e+00   5.6215211e+03
 8.4575796e+00   5.5292310e+03
 8.4622602e+00   5.4250473e+03
 8.4669399e+00   5.3726035e+03
 8.4716196e+00   5.3217279e+03
 8.4763002e+00   5.2955014e+03
 8.4809799e+00   5.2455118e+03
 8.4856596e+00   5.2477541e+03
 8.4903402e+00   5.2020369e+03
 8.4950199e+00   5.2157294e+03
 8.4996996e+00   5.1894847e+03
 8.5043802e+00   5.1879097e+03
 8.5090599e+00   5.1544539e+03
 8.5137396e+00   5.1634722e+03
 8.5184202e+00   5.1317650e+03
 8.5230999e+00   5.1400642e+03
 8.5277796e+00   5.1225213e+03
 8.5324602e+00   5.1185235e+03
 8.5371399e+00   5.1100454e+03
 8.5418196e+00   5.1208009e+03
 8.5465002e+00   5.1073242e+03
 8.5511799e+00   5.1072049e+03
 8.5558596e+00   5.1092153e+03
 8.5605402e+00   5.0923281e+03
 8.5652199e+00   5.1053226e+03
 8.5698996e+00   5.0752553e+03
 8.5745802e+00   5.1023470e+03
 8.5792599e+00   5.0508968e+03
 8.5839396e+00   5.0845477e+03
 8.5886202e+00   5.0452674e+03
 8.5932999e+00   5.0640094e+03
 8.5979795e+00   5.0392293e+03
 8.6026602e+00   5.0370251e+03
 8.6073399e+00   5.0455389e+03
 8.6120195e+00   5.0503039e+03
 8.6167002e+00   5.0457921e+03
 8.6213799e+00   5.0255292e+03
 8.6260595e+00   5.0343013e+03
 8.6307402e+00   5.0115145e+03
 8.6354198e+00   5.0238210e+03
 8.6400995e+00   5.0202535e+03
 8.6447802e+00   5.0143485e+03
 8.6494598e+00   4.9917733e+03
 8.6541405e+00   5.0244436e+03
 8.6588202e+00   4.9958141e+03
 8.6634998e+00   5.0078505e+03
 8.6681805e+00   5.0004052e+03
 8.6728601e+00   5.0092830e+03
 8.6775398e+00   4.9995175e+03
 8.6822205e+00   4.9827374e+03
 8.6869001e+00   4.9833212e+03
 8.6915798e+00   4.9827269e+03
 8.6962605e+00   4.9823272e+03
 8.7009401e+00   4.9839209e+03
 8.7056198e+00   4.9869836e+03
 8.7103004e+00   4.9735633e+03
 8.7149801e+00   4.9834038e+03
 8.7196598e+00   4.9672711e+03
 8.7243404e+00   4.9791600e+03
 8.7290201e+00   4.9882802e+03
 8.7336998e+00   4.9782556e+03
 8.7383804e+00   4.9828948e+03
 8.7430601e+00   4.9869543e+03
 8.7477398e+00   4.9745768e+03
 8.7524204e+00   4.9906774e+03
 8.7571001e+00   4.9930205e+03
 8.7617798e+00   5.0046019e+03
 8.7664604e+00   5.0217526e+03
 8.7711401e+00   5.0213294e+03
 8.7758198e+00   5.0366546e+03
 8.7805004e+00   5.0827919e+03
 8.7851801e+00   5.0937425e+03
 8.7898598e+00   5.1310580e+03
 8.7945404e+00   5.1826289e+03
 8.7992201e+00   5.2243602e+03
 8.8038998e+00   5.3254271e+03
 8.8085804e+00   5.3954879e+03
 8.8132601e+00   5.5139814e+03
 8.8179398e+00   5.6450538e+03
 8.8226204e+00   5.7944055e+03
 8.8273001e+00   5.9557812e+03
 8.8319798e+00   6.1408039e+03
 8.8366604e+00   6.2773142e+03
 8.8413401e+00   6.4237027e+03
 8.8460197e+00   6.4980218e+03
 8.8507004e+00   6.5356662e+03
 8.8553801e+00   6.5045766e+03
 8.8600597e+00   6.4112374e+03
 8.8647404e+00   6.2933086e+03
 8.8694201e+00   6.1172033e+03
 8.8740997e+00   5.9557632e+03
 8.8787804e+00   5.7740257e+03
 8.8834600e+00   5.6182737e+03
 8.8881397e+00   5.4813669e+03
 8.8928204e+00   5.3686272e+03
 8.8975000e+00   5.2695450e+03
 8.9021797e+00   5.2057755e+03
 8.9068604e+00   5.1322215e+03
 8.9115400e+00   5.0859587e+03
 8.9162197e+00   5.0588568e+03
 8.9209003e+00   5.0245654e+03
 8.9255800e+00   5.0234631e+03
 8.9302597e+00   5.0087752e+03
 8.9349403e+00   4.9969112e+03
 8.9396200e+00   4.9821434e+03
 8.9442997e+00   4.9982049e+03
 8.9489803e+00   4.9951356e+03
 8.9536600e+00   5.0083067e+03
 8.9583397e+00   5.0051711e+03
 8.9630203e+00   5.0344955e+03
 8.9677000e+00   5.0446647e+03
 8.9723797e+00   5.0898098e+03
 8.9770603e+00   5.1151545e+03
 8.9817400e+00   5.1756237e+03
 8.9864197e+00   5.2121358e+03
 8.9911003e+00   5.2735644e+03
 8.9957800e+00   5.3334410e+03
 9.0004597e+00   5.4127481e+03
 9.0051403e+00   5.4921458e+03
 9.0098200e+00   5.5382200e+03
 9.0144997e+00   5.5974647e+03
 9.0191803e+00   5.6213806e+03
 9.0238600e+00   5.6184795e+03
 9.0285397e+00   5.5979252e+03
 9.0332203e+00   5.5534837e+03
 9.0379000e+00   5.4800655e+03
 9.0425797e+00   5.4048214e+03
 9.0472603e+00   5.3153811e+03
 9.0519400e+00   5.2362434e+03
 9.0566196e+00   5.1421794e+03
 9.0613003e+00   5.0887008e+03
 9.0659800e+00   5.0265353e+03
 9.0706596e+00   5.0057711e+03
 9.0753403e+00   4.9571839e+03
 9.0800200e+00   4.9387249e+03
 9.0846996e+00   4.9043209e+03
 9.0893803e+00   4.8975484e+03
 9.0940599e+00   4.8882116e+03
 9.0987396e+00   4.8844509e+03
 9.1034203e+00   4.8744237e+03
 9.1080999e+00   4.8626051e+03
 9.1127796e+00   4.8716768e+03
 9.1174603e+00   4.8625093e+03
 9.1221399e+00   4.8531736e+03
 9.1268196e+00   4.8656030e+03
 9.1315002e+00   4.8520883e+03
 9.1361799e+00   4.8535045e+03
 9.1408596e+00   4.8681069e+03
 9.1455402e+00   4.8688810e+03
 9.1502199e+00   4.8785794e+03
 9.1548996e+00   4.8809411e+03
 9.1595802e+00   4.8919865e+03
 9.1642599e+00   4.8897286e+03
 9.1689396e+00   4.9103402e+03
 9.1736202e+00   4.9129975e+03
 9.1782999e+00   4.9383555e+03
 9.1829796e+00   4.9499579e+03
 9.1876602e+00   4.9657711e+03
 9.1923399e+00   5.0062228e+03
 9.1970196e+00   5.0403990e+03
 9.2017002e+00   5.1132465e+03
 9.2063799e+00   5.1570042e+03
 9.2110596e+00   5.2355454e+03
 9.2157402e+00   5.3369836e+03
 9.2204199e+00   5.4679992e+03
 9.2250996e+00   5.6125446e+03
 9.2297802e+00   5.7985559e+03
 9.2344599e+00   6.0037364e+03
 9.2391396e+00   6.2345038e+03
 9.2438202e+00   6.4632762e+03
 9.2484999e+00   6.6854417e+03
 9.2531796e+00   6.8723016e+03
 9.2578602e+00   6.9845005e+03
 9.2625399e+00   7.0303468e+03
 9.2672195e+00   7.0109579e+03
 9.2719002e+00   6.9027439e+03
 9.2765799e+00   6.7360761e+03
 9.2812595e+00   6.5367578e+03
 9.2859402e+00   6.3042762e+03
 9.2906199e+00   6.0940084e+03
 9.2952995e+00   5.8830849e+03
 9.2999802e+00   5.7014776e+03
 9.3046598e+00   5.5436103e+03
 9.3093395e+00   5.4261477e+03
 9.3140202e+00   5.3401993e+03
 9.3186998e+00   5.2687369e+03
 9.3233805e+00   5.2137113e+03
 9.3280602e+00   5.1950900e+03
 9.3327398e+00   5.1665725e+03
 9.3374205e+00   5.1679765e+03
 9.3421001e+00   5.1900413e+03
 9.3467798e+00   5.1997413e+03
 9.3514605e+00   5.2342114e+03
 9.3561401e+00   5.2753653e+03
 9.3608198e+00   5.3075713e+03
 9.3655005e+00   5.3292956e+03
 9.3701801e+00   5.3364578e+03
 9.3748598e+00   5.3303149e+03
 9.3795404e+00   5.3278176e+03
 9.3842201e+00   5.3087916e+03
 9.3888998e+00   5.2780584e+03
 9.3935804e+00   5.2577217e+03
 9.3982601e+00   5.2417252e+03
 9.4029398e+00   5.2359944e+03
 9.4076204e+00   5.2217286e+03
 9.4123001e+00   5.2431467e+03
 9.4169798e+00   5.2702901e+03
 9.4216604e+00   5.3106258e+03
 9.4263401e+00   5.3723054e+03
 9.4310198e+00   5.4708118e+03
 9.4357004e+00   5.5607325e+03
 9.4403801e+00   5.6872595e+03
 9.4450598e+00   5.7957340e+03
 9.4497404e+00   5.9341368e+03
 9.4544201e+00   6.0479884e+03
 9.4590998e+00   6.1396727e+03
 9.4637804e+00   6.2159879e+03
 9.4684601e+00   6.2642794e+03
 9.4731398e+00   6.2981846e+03
 9.4778204e+00   6.3244392e+03
 9.4825001e+00   6.3184837e+03
 9.4871798e+00   6.3146589e+03
 9.4918604e+00   6.2892175e+03
 9.4965401e+00   6.2345509e+03
 9.5012197e+00   6.1851745e+03
 9.5059004e+00   6.0748819e+03
 9.5105801e+00   5.9742163e+03
 9.5152597e+00   5.8561342e+03
 9.5199404e+00   5.7252766e+03
 9.5246201e+00   5.5981242e+03
 9.5292997e+00   5.4971796e+03
 9.5339804e+00   5.3660724e+03
 9.5386600e+00   5.3005572e+03
 9.5433397e+00   5.2182894e+03
 9.5480204e+00   5.1619746e+03
 9.5527000e+00   5.1177626e+03
 9.5573797e+00   5.0851361e+03
 9.5620604e+00   5.0402892e+03
 9.5667400e+00   5.0273883e+03
 9.5714197e+00   4.9937251e+03
 9.5761003e+00   4.9806962e+03
 9.5807800e+00   4.9669761e+03
 9.5854597e+00   4.9466918e+03
 9.5901403e+00   4.9536359e+03
 9.5948200e+00   4.9370569e+03
 9.5994997e+00   4.9467466e+03
 9.6041803e+00   4.9367122e+03
 9.6088600e+00   4.9305823e+03
 9.6135397e+00   4.9298796e+03
 9.6182203e+00   4.9285961e+03
 9.6229000e+00   4.9247630e+03
 9.6275797e+00   4.9288329e+03
 9.6322603e+00   4.9354210e+03
 9.6369400e+00   4.9313411e+03
 9.6416197e+00   4.9192006e+03
 9.6463003e+00   4.9268477e+03
 9.6509800e+00   4.9197819e+03
 9.6556597e+00   4.9363596e+03
 9.6603403e+00   4.9212018e+03
 9.6650200e+00   4.9384653e+03
 9.6696997e+00   4.9286350e+03
 9.6743803e+00   4.9437723e+03
 9.6790600e+00   4.9421110e+03
 9.6837397e+00   4.9377012e+03
 9.6884203e+00   4.9512480e+03
 9.6931000e+00   4.9503992e+03
 9.6977797e+00   4.9651238e+03
 9.7024603e+00   4.9603657e+03
 9.7071400e+00   4.9729730e+03
 9.7118196e+00   4.9852943e+03
 9.7165003e+00   4.9784198e+03
 9.7211800e+00   5.0001100e+03
 9.7258596e+00   5.0231908e+03
 9.7305403e+00   5.0380905e+03
 9.7352200e+00   5.0612551e+03
 9.7398996e+00   5.0934602e+03
 9.7445803e+00   5.1286907e+03
 9.7492599e+00   5.1790790e+03
 9.7539396e+00   5.2343572e+03
 9.7586203e+00   5.3136436e+03
 9.7632999e+00   5.4127535e+03
 9.7679796e+00   5.5247345e+03
 9.7726603e+00   5.6735928e+03
 9.7773399e+00   5.8515267e+03
 9.7820196e+00   6.0669881e+03
 9.7867002e+00   6.3093571e+03
 9.7913799e+00   6.5557530e+03
 9.7960596e+00   6.8183601e+03
 9.8007402e+00   7.0635555e+03
 9.8054199e+00   7.2835711e+03
 9.8100996e+00   7.4493557e+03
 9.8147802e+00   7.5456767e+03
 9.8194599e+00   7.6057407e+03
 9.8241396e+00   7.6175090e+03
 9.8288202e+00   7.5598706e+03
 9.8334999e+00   7.8237096e+03
 9.8381796e+00   8.0758467e+03
 9.8428602e+00   8.6140216e+03
 9.8475399e+00   9.1795986e+03
 9.8522196e+00   9.3874245e+03
 9.8569002e+00   1.0371744e+04
 9.8615799e+00   1.1112547e+04
 9.8662596e+00   1.1193225e+04
 9.8709402e+00   1.0578752e+04
 9.8756199e+00   9.7354645e+03
 9.8802996e+00   8.5308526e+03
 9.8849802e+00   7.1039187e+03
 9.8896599e+00   6.8078036e+03
 9.8943396e+00   6.4394650e+03
 9.8990202e+00   5.9818783e+03
 9.9036999e+00   5.6788028e+03
 9.9083796e+00   5.4607393e+03
 9.9130602e+00   5.3300930e+03
 9.9177399e+00   5.2654386e+03
 9.9224195e+00   5.2004009e+03
 9.9271002e+00   5.1792518e+03
 9.9317799e+00   5.1377046e+03
 9.9364595e+00   5.1193405e+03
 9.9411402e+00   5.1096800e+03
 9.9458199e+00   5.0942236e+03
 9.9504995e+00   5.0953079e+03
 9.9551802e+00   5.0861114e+03
 9.9598598e+00   5.0872066e+03
 9.9645395e+00   5.0796686e+03
 9.9692202e+00   5.0793235e+03
 9.9738998e+00   5.0769637e+03
 9.9785805e+00   5.0621554e+03
 9.9832602e+00   5.0696153e+03
 9.9879398e+00   5.0839768e+03
 9.9926205e+00   5.0765326e+03
 9.9973001e+00   5.0935302e+03
 1.0001980e+01   5.0839114e+03
 1.0006660e+01   5.0883633e+03
 1.0011340e+01   5.0817292e+03
 1.0016020e+01   5.0840191e+03
 1.0020700e+01   5.0909680e+03
 1.0025380e+01   5.0920084e+03
 1.0030060e+01   5.0926571e+03
 1.0034740e+01   5.1103441e+03
 1.0039420e+01   5.1207030e+03
 1.0044100e+01   5.1297563e+03
 1.0048780e+01   5.1422153e+03
 1.0053460e+01   5.1575949e+03
 1.0058140e+01   5.1854935e+03
 1.0062820e+01   5.1791571e+03
 1.0067500e+01   5.2028250e+03
 1.0072180e+01   5.2039203e+03
 1.0076860e+01   5.2107927e+03
 1.0081540e+01   5.1906035e+03
 1.0086220e+01   5.1913918e+03
 1.0090900e+01   5.1743477e+03
 1.0095580e+01   5.1567052e+03
 1.0100260e+01   5.1267824e+03
 1.0104940e+01   5.1201806e+03
 1.0109620e+01   5.1052843e+03
 1.0114300e+01   5.0863151e+03
 1.0118980e+01   5.0814330e+03
 1.0123660e+01   5.0671729e+03
 1.0128340e+01   5.0583913e+03
 1.0133020e+01   5.0532098e+03
 1.0137700e+01   5.0484414e+03
 1.0142380e+01   5.0653183e+03
 1.0147060e+01   5.0551333e+03
 1.0151740e+01   5.0426070e+03
 1.0156420e+01   5.0426241e+03
 1.0161100e+01   5.0486580e+03
 1.0165780e+01   5.0420927e+03
 1.0170460e+01   5.0569170e+03
 1.0175140e+01   5.0567376e+03
 1.0179820e+01   5.0524805e+03
 1.0184500e+01   5.0412885e+03
 1.0189180e+01   5.0318840e+03
 1.0193860e+01   5.0488163e+03
 1.0198540e+01   5.0546583e+03
 1.0203220e+01   5.0467237e+03
 1.0207900e+01   5.0578464e+03
 1.0212580e+01   5.0521007e+03
 1.0217260e+01   5.0616093e+03
 1.0221940e+01   5.0500540e+03
 1.0226620e+01   5.0609834e+03
 1.0231300e+01   5.0748296e+03
 1.0235980e+01   5.0786626e+03
 1.0240660e+01   5.0899151e+03
 1.0245340e+01   5.1001160e+03
 1.0250020e+01   5.1120170e+03
 1.0254700e+01   5.1486585e+03
 1.0259380e+01   5.1909865e+03
 1.0264060e+01   5.2649320e+03
 1.0268740e+01   5.3966049e+03
 1.0273420e+01   5.4585042e+03
 1.0278100e+01   5.4000549e+03
 1.0282780e+01   5.3610149e+03
 1.0287460e+01   5.4988740e+03
 1.0292140e+01   5.6318127e+03
 1.0296820e+01   5.6996538e+03
 1.0301500e+01   5.7934788e+03
 1.0306180e+01   5.8197403e+03
 1.0310860e+01   5.7415850e+03
 1.0315540e+01   5.7104650e+03
 1.0320220e+01   5.5866185e+03
 1.0324900e+01   5.6070058e+03
 1.0329580e+01   5.7583344e+03
 1.0334260e+01   5.5359898e+03
 1.0338940e+01   5.3500816e+03
 1.0343620e+01   5.2723291e+03
 1.0348300e+01   5.2031043e+03
 1.0352980e+01   5.1365639e+03
 1.0357660e+01   5.1181993e+03
 1.0362340e+01   5.0889567e+03
 1.0367020e+01   5.0772146e+03
 1.0371700e+01   5.0587002e+03
 1.0376380e+01   5.0574426e+03
 1.0381060e+01   5.0404886e+03
 1.0385740e+01   5.0472658e+03
 1.0390420e+01   5.0372762e+03
 1.0395100e+01   5.0456946e+03
 1.0399780e+01   5.0452088e+03
 1.0404460e+01   5.0311307e+03
 1.0409140e+01   5.0406829e+03
 1.0413820e+01   5.0264902e+03
 1.0418500e+01   5.0346585e+03
 1.0423180e+01   5.0390451e+03
 1.0427860e+01   5.0257661e+03
 1.0432540e+01   5.0174536e+03
 1.0437220e+01   5.0256562e+03
 1.0441900e+01   5.0196310e+03
 1.0446580e+01   5.0349345e+03
 1.0451260e+01   5.0165025e+03
 1.0455940e+01   5.0242220e+03
 1.0460620e+01   5.0180724e+03
 1.0465300e+01   5.0090918e+03
 1.0469980e+01   5.0219067e+03
 1.0474660e+01   5.0164972e+03
 1.0479340e+01   5.0212895e+03
 1.0484020e+01   5.0253387e+03
 1.0488700e+01   5.0168407e+03
 1.0493380e+01   5.0303311e+03
 1.0498060e+01   5.0352908e+03
 1.0502740e+01   5.0515670e+03
 1.0507420e+01   5.0484213e+03
 1.0512100e+01   5.0504348e+03
 1.0516780e+01   5.0609598e+03
 1.0521460e+01   5.0710133e+03
 1.0526140e+01   5.0718913e+03
 1.0530820e+01   5.0990310e+03
 1.0535500e+01   5.1131109e+03
 1.0540180e+01   5.1121381e+03
 1.0544860e+01   5.1166650e+03
 1.0549540e+01   5.1242951e+03
 1.0554220e+01   5.1178896e+03
 1.0558900e+01   5.1207525e+03
 1.0563580e+01   5.0912268e+03
 1.0568260e+01   5.0859526e+03
 1.0572940e+01   5.0624605e+03
 1.0577620e+01   5.0434983e+03
 1.0582300e+01   5.0151290e+03
 1.0586980e+01   5.0308918e+03
 1.0591660e+01   4.9922835e+03
 1.0596340e+01   4.9773998e+03
 1.0601020e+01   4.9719937e+03
 1.0605700e+01   4.9666940e+03
 1.0610380e+01   4.9607330e+03
 1.0615060e+01   4.9422693e+03
 1.0619740e+01   4.9471644e+03
 1.0624420e+01   4.9324941e+03
 1.0629100e+01   4.9399804e+03
 1.0633780e+01   4.9441387e+03
 1.0638460e+01   4.9381810e+03
 1.0643140e+01   4.9246870e+03
 1.0647820e+01   4.9410584e+03
 1.0652500e+01   4.9510732e+03
 1.0657180e+01   4.9590340e+03
 1.0661860e+01   4.9581880e+03
 1.0666540e+01   4.9733667e+03
 1.0671220e+01   4.9869705e+03
 1.0675900e+01   5.0061543e+03
 1.0680580e+01   5.0274040e+03
 1.0685260e+01   5.0440151e+03
 1.0689940e+01   5.1049113e+03
 1.0694620e+01   5.1249384e+03
 1.0699300e+01   5.1742121e+03
 1.0703980e+01   5.2120971e+03
 1.0708660e+01   5.2604368e+03
 1.0713340e+01   5.3007627e+03
 1.0718020e+01   5.3333310e+03
 1.0722700e+01   5.3514692e+03
 1.0727380e+01   5.3720761e+03
 1.0732060e+01   5.3363720e+03
 1.0736740e+01   5.3138180e+03
 1.0741420e+01   5.2678538e+03
 1.0746100e+01   5.2296594e+03
 1.0750780e+01   5.1796815e+03
 1.0755460e+01   5.1370130e+03
 1.0760140e+01   5.0896292e+03
 1.0764820e+01   5.0482946e+03
 1.0769500e+01   5.0114574e+03
 1.0774180e+01   4.9755919e+03
 1.0778860e+01   4.9656001e+03
 1.0783540e+01   4.9251937e+03
 1.0788220e+01   4.9211765e+03
 1.0792900e+01   4.8995567e+03
 1.0797580e+01   4.8966172e+03
 1.0802260e+01   4.8787316e+03
 1.0806940e+01   4.8740764e+03
 1.0811620e+01   4.8813550e+03
 1.0816300e+01   4.8657266e+03
 1.0820980e+01   4.8624737e+03
 1.0825660e+01   4.8561267e+03
 1.0830340e+01   4.8621252e+03
 1.0835020e+01   4.8569386e+03
 1.0839700e+01   4.8536665e+03
 1.0844380e+01   4.8546063e+03
 1.0849060e+01   4.8471779e+03
 1.0853740e+01   4.8302019e+03
 1.0858420e+01   4.8302423e+03
 1.0863100e+01   4.8281930e+03
 1.0867780e+01   4.8239859e+03
 1.0872460e+01   4.8149436e+03
 1.0877140e+01   4.8019000e+03
 1.0881820e+01   4.7959559e+03
 1.0886500e+01   4.7936441e+03
 1.0891180e+01   4.7884689e+03
 1.0895860e+01   4.7779636e+03
 1.0900540e+01   4.7884266e+03
 1.0905220e+01   4.7689041e+03
 1.0909900e+01   4.7795083e+03
 1.0914580e+01   4.7523497e+03
 1.0919260e+01   4.7558583e+03
 1.0923940e+01   4.7413557e+03
 1.0928620e+01   4.7396372e+03
 1.0933300e+01   4.7420000e+03
 1.0937980e+01   4.7363820e+03
 1.0942660e+01   4.7322864e+03
 1.0947340e+01   4.7292572e+03
 1.0952020e+01   4.7304194e+03
 1.0956700e+01   4.7214713e+03
 1.0961380e+01   4.7362905e+03
 1.0966060e+01   4.7353488e+03
 1.0970740e+01   4.7296459e+03
 1.0975420e+01   4.7196881e+03
 1.0980100e+01   4.7276360e+03
 1.0984780e+01   4.7215800e+03
 1.0989460e+01   4.7174335e+03
 1.0994140e+01   4.7136395e+03
 1.0998820e+01   4.7303982e+03
 1.1003500e+01   4.7094295e+03
 1.1008180e+01   4.7186447e+03
 1.1012860e+01   4.7291318e+03
 1.1017540e+01   4.7256653e+03
 1.1022220e+01   4.7380202e+03
 1.1026900e+01   4.7380123e+03
 1.1031580e+01   4.7546948e+03
 1.1036260e+01   4.7560080e+03
 1.1040940e+01   4.7775975e+03
 1.1045620e+01   4.7943985e+03
 1.1050300e+01   4.8128424e+03
 1.1054980e+01   4.8401968e+03
 1.1059660e+01   4.8691218e+03
 1.1064340e+01   4.9099021e+03
 1.1069020e+01   4.9752425e+03
 1.1073700e+01   5.0210725e+03
 1.1078380e+01   5.0869714e+03
 1.1083060e+01   5.1812615e+03
 1.1087740e+01   5.2787515e+03
 1.1092420e+01   5.3971104e+03
 1.1097100e+01   5.5195836e+03
 1.1101780e+01   5.6073889e+03
 1.1106460e+01   5.6943544e+03
 1.1111140e+01   5.7549747e+03
 1.1115820e+01   5.7889324e+03
 1.1120500e+01   5.7821291e+03
 1.1125180e+01   5.7383453e+03
 1.1129860e+01   5.6655221e+03
 1.1134540e+01   5.5719659e+03
 1.1139220e+01   5.4509168e+03
 1.1143900e+01   5.3441972e+03
 1.1148580e+01   5.2348733e+03
 1.1153260e+01   5.1282336e+03
 1.1157940e+01   5.0471097e+03
 1.1162620e+01   4.9606924e+03
 1.1167300e+01   4.8980726e+03
 1.1171980e+01   4.8545433e+03
 1.1176660e+01   4.7919800e+03
 1.1181340e+01   4.7716025e+03
 1.1186020e+01   4.7430025e+03
 1.1190700e+01   4.7271058e+03
 1.1195380e+01   4.7068092e+03
 1.1200060e+01   4.6862296e+03
 1.1204740e+01   4.6792346e+03
 1.1209420e+01   4.6640639e+03
 1.1214100e+01   4.6705892e+03
 1.1218780e+01   4.6671971e+03
 1.1223460e+01   4.6631941e+03
 1.1228140e+01   4.6697813e+03
 1.1232820e+01   4.6661475e+03
 1.1237500e+01   4.6702619e+03
 1.1242180e+01   4.6768593e+03
 1.1246860e+01   4.6860714e+03
 1.1251540e+01   4.6838317e+03
 1.1256220e+01   4.6833657e+03
 1.1260900e+01   4.6872571e+03
 1.1265580e+01   4.6884655e+03
 1.1270260e+01   4.6984689e+03
 1.1274940e+01   4.6822699e+03
 1.1279620e+01   4.6962996e+03
 1.1284300e+01   4.6879824e+03
 1.1288980e+01   4.6821229e+03
 1.1293660e+01   4.6785811e+03
 1.1298340e+01   4.6640512e+03
 1.1303020e+01   4.6577305e+03
 1.1307700e+01   4.6275671e+03
 1.1312380e+01   4.6203807e+03
 1.1317060e+01   4.5954637e+03
 1.1321740e+01   4.5851590e+03
 1.1326420e+01   4.5719441e+03
 1.1331100e+01   4.5593939e+03
 1.1335780e+01   4.5465645e+03
 1.1340460e+01   4.5383270e+03
 1.1345140e+01   4.5308937e+03
 1.1349820e+01   4.5163579e+03
 1.1354500e+01   4.5312611e+03
 1.1359180e+01   4.5095085e+03
 1.1363860e+01   4.5202618e+03
 1.1368540e+01   4.5034529e+03
 1.1373220e+01   4.5034441e+03
 1.1377900e+01   4.5083438e+03
 1.1382580e+01   4.4940626e+03
 1.1387260e+01   4.4930117e+03
 1.1391940e+01   4.5040503e+03
 1.1396620e+01   4.4932348e+03
 1.1401300e+01   4.5027862e+03
 1.1405980e+01   4.4940193e+03
 1.1410660e+01   4.4946203e+03
 1.1415340e+01   4.5003722e+03
 1.1420020e+01   4.4914858e+03
 1.1424700e+01   4.5020036e+03
 1.1429380e+01   4.5113656e+03
 1.1434060e+01   4.5029161e+03
 1.1438740e+01   4.5157114e+03
 1.1443420e+01   4.5187749e+03
 1.1448100e+01   4.5268735e+03
 1.1452780e+01   4.5452067e+03
 1.1457460e+01   4.5523827e+03
 1.1462140e+01   4.5650826e+03
 1.1466820e+01   4.5949928e+03
 1.1471500e+01   4.6114224e+03
 1.1476180e+01   4.6484510e+03
 1.1480860e+01   4.6840207e+03
 1.1485540e+01   4.7281007e+03
 1.1490220e+01   4.7671722e+03
 1.1494900e+01   4.8191214e+03
 1.1499580e+01   4.8737736e+03
 1.1504260e+01   4.9299300e+03
 1.1508940e+01   4.9617656e+03
 1.1513620e+01   5.0036254e+03
 1.1518300e+01   5.0282693e+03
 1.1522980e+01   5.0456387e+03
 1.1527660e+01   5.0479853e+03
 1.1532340e+01   5.0063720e+03
 1.1537020e+01   4.9864752e+03
 1.1541700e+01   4.9381576e+03
 1.1546380e+01   4.8716830e+03
 1.1551060e+01   4.8178606e+03
 1.1555740e+01   4.7475480e+03
 1.1560420e+01   4.7108267e+03
 1.1565100e+01   4.6540846e+03
 1.1569780e+01   4.6033211e+03
 1.1574460e+01   4.5705479e+03
 1.1579140e+01   4.5460121e+03
 1.1583820e+01   4.5115535e+03
 1.1588500e+01   4.4928730e+03
 1.1593180e+01   4.4733478e+03
 1.1597860e+01   4.4699821e+03
 1.1602540e+01   4.4502211e+03
 1.1607220e+01   4.4396445e+03
 1.1611900e+01   4.4404774e+03
 1.1616580e+01   4.4234463e+03
 1.1621260e+01   4.4234884e+03
 1.1625940e+01   4.4175959e+03
 1.1630620e+01   4.4031056e+03
 1.1635300e+01   4.4038042e+03
 1.1639980e+01   4.3932403e+03
 1.1644660e+01   4.3834827e+03
 1.1649340e+01   4.3856319e+03
 1.1654020e+01   4.3756760e+03
 1.1658700e+01   4.3596617e+03
 1.1663380e+01   4.3621728e+03
 1.1668060e+01   4.3548144e+03
 1.1672740e+01   4.3569266e+03
 1.1677420e+01   4.3476927e+03
 1.1682100e+01   4.3442083e+03
 1.1686780e+01   4.3443815e+03
 1.1691460e+01   4.3332287e+03
 1.1696140e+01   4.3290360e+03
 1.1700820e+01   4.3331110e+03
 1.1705500e+01   4.3229120e+03
 1.1710180e+01   4.3291997e+03
 1.1714860e+01   4.3194604e+03
 1.1719540e+01   4.3240898e+03
 1.1724220e+01   4.3225731e+03
 1.1728900e+01   4.3092022e+03
 1.1733580e+01   4.3161887e+03
 1.1738260e+01   4.3043821e+03
 1.1742940e+01   4.3059110e+03
 1.1747620e+01   4.3046709e+03
 1.1752300e+01   4.2965794e+03
 1.1756980e+01   4.3046024e+03
 1.1761660e+01   4.2995124e+03
 1.1766340e+01   4.2871011e+03
 1.1771020e+01   4.2994906e+03
 1.1775700e+01   4.2876919e+03
 1.1780380e+01   4.2868358e+03
 1.1785060e+01   4.2893295e+03
 1.1789740e+01   4.2866908e+03
 1.1794420e+01   4.2946236e+03
 1.1799100e+01   4.2836927e+03
 1.1803780e+01   4.2786340e+03
 1.1808460e+01   4.2865730e+03
 1.1813140e+01   4.2792846e+03
 1.1817820e+01   4.2803485e+03
 1.1822500e+01   4.2791240e+03
 1.1827180e+01   4.2826305e+03
 1.1831860e+01   4.2863310e+03
 1.1836540e+01   4.2774967e+03
 1.1841220e+01   4.2838869e+03
 1.1845900e+01   4.2845276e+03
 1.1850580e+01   4.2787051e+03
 1.1855260e+01   4.2910940e+03
 1.1859940e+01   4.3034574e+03
 1.1864620e+01   4.3115646e+03
 1.1869300e+01   4.3268717e+03
 1.1873980e+01   4.3521561e+03
 1.1878660e+01   4.3606169e+03
 1.1883340e+01   4.3770566e+03
 1.1888020e+01   4.3847521e+03
 1.1892700e+01   4.4169333e+03
 1.1897380e+01   4.4586616e+03
 1.1902060e+01   4.4743101e+03
 1.1906740e+01   4.4905018e+03
 1.1911420e+01   4.4754318e+03
 1.1916100e+01   4.4764281e+03
 1.1920780e+01   4.4200312e+03
 1.1925460e+01   4.4198674e+03
 1.1930140e+01   4.3942432e+03
 1.1934820e+01   4.3926283e+03
 1.1939500e+01   4.4021793e+03
 1.1944180e+01   4.3766725e+03
 1.1948860e+01   4.3726394e+03
 1.1953540e+01   4.3950769e+03
 1.1958220e+01   4.3986972e+03
 1.1962900e+01   4.4140184e+03
 1.1967580e+01   4.4517489e+03
 1.1972260e+01   4.4850078e+03
 1.1976940e+01   4.5212558e+03
 1.1981620e+01   4.5604206e+03
 1.1986300e+01   4.5894450e+03
 1.1990980e+01   4.6144052e+03
 1.1995660e+01   4.6360922e+03
 1.2000340e+01   4.6526578e+03
 1.2005020e+01   4.6370088e+03
 1.2009700e+01   4.6285715e+03
 1.2014380e+01   4.6098174e+03
 1.2019060e+01   4.5809717e+03
 1.2023740e+01   4.5335557e+03
 1.2028420e+01   4.5195857e+03
 1.2033100e+01   4.4710050e+03
 1.2037780e+01   4.4471428e+03
 1.2042460e+01   4.4258867e+03
 1.2047140e+01   4.4141746e+03
 1.2051820e+01   4.4213023e+03
 1.2056500e+01   4.4041936e+03
 1.2061180e+01   4.4273151e+03
 1.2065860e+01   4.4445852e+03
 1.2070540e+01   4.4634573e+03
 1.2075220e+01   4.5038171e+03
 1.2079900e+01   4.5622844e+03
 1.2084580e+01   4.6128944e+03
 1.2089260e+01   4.6869939e+03
 1.2093940e+01   4.7587336e+03
 1.2098620e+01   4.8621066e+03
 1.2103300e+01   4.9507509e+03
 1.2107980e+01   5.0473847e+03
 1.2112660e+01   5.1512936e+03
 1.2117340e+01   5.2197893e+03
 1.2122020e+01   5.2726345e+03
 1.2126700e+01   5.3100931e+03
 1.2131380e+01   5.3116297e+03
 1.2136060e+01   5.2706667e+03
 1.2140740e+01   5.2098127e+03
 1.2145420e+01   5.1300785e+03
 1.2150100e+01   5.0365566e+03
 1.2154780e+01   4.9166122e+03
 1.2159460e+01   4.8187343e+03
 1.2164140e+01   4.7180000e+03
 1.2168820e+01   4.6231227e+03
 1.2173500e+01   4.5390164e+03
 1.2178180e+01   4.4761980e+03
 1.2182860e+01   4.4012503e+03
 1.2187540e+01   4.3579035e+03
 1.2192220e+01   4.3253605e+03
 1.2196900e+01   4.2772134e+03
 1.2201580e+01   4.2431974e+03
 1.2206260e+01   4.2100496e+03
 1.2210940e+01   4.2014837e+03
 1.2215620e+01   4.1789706e+03
 1.2220300e+01   4.1674310e+03
 1.2224980e+01   4.1551716e+03
 1.2229660e+01   4.1398972e+03
 1.2234340e+01   4.1337798e+03
 1.2239020e+01   4.1156773e+03
 1.2243700e+01   4.1189244e+03
 1.2248380e+01   4.1005350e+03
 1.2253060e+01   4.1065342e+03
 1.2257740e+01   4.1023277e+03
 1.2262420e+01   4.0982313e+03
 1.2267100e+01   4.0798195e+03
 1.2271780e+01   4.0754077e+03
 1.2276460e+01   4.0839916e+03
 1.2281140e+01   4.0706183e+03
 1.2285820e+01   4.0804270e+03
 1.2290500e+01   4.0651525e+03
 1.2295180e+01   4.0793415e+03
 1.2299860e+01   4.0758837e+03
 1.2304540e+01   4.0739141e+03
 1.2309220e+01   4.0731708e+03
 1.2313900e+01   4.0790770e+03
 1.2318580e+01   4.0788953e+03
 1.2323260e+01   4.0841555e+03
 1.2327940e+01   4.0847796e+03
 1.2332620e+01   4.1015170e+03
 1.2337300e+01   4.1045861e+03
 1.2341980e+01   4.1182755e+03
 1.2346660e+01   4.1401127e+03
 1.2351340e+01   4.1618570e+03
 1.2356020e+01   4.1830072e+03
 1.2360700e+01   4.1996937e+03
 1.2365380e+01   4.2421095e+03
 1.2370060e+01   4.2671951e+03
 1.2374740e+01   4.3054764e+03
 1.2379420e+01   4.3227683e+03
 1.2384100e+01   4.3466725e+03
 1.2388780e+01   4.3610261e+03
 1.2393460e+01   4.3723048e+03
 1.2398140e+01   4.3895952e+03
 1.2402820e+01   4.3988274e+03
 1.2407500e+01   4.4120024e+03
 1.2412180e+01   4.4044710e+03
 1.2416860e+01   4.4298395e+03
 1.2421540e+01   4.4538057e+03
 1.2426220e+01   4.4695851e+03
 1.2430900e+01   4.5185088e+03
 1.2435580e+01   4.5454304e+03
 1.2440260e+01   4.5899403e+03
 1.2444940e+01   4.6197578e+03
 1.2449620e+01   4.6618619e+03
 1.2454300e+01   4.6862311e+03
 1.2458980e+01   4.7130271e+03
 1.2463660e+01   4.7214994e+03
 1.2468340e+01   4.7332243e+03
 1.2473020e+01   4.7151596e+03
 1.2477700e+01   4.7040464e+03
 1.2482380e+01   4.6685106e+03
 1.2487060e+01   4.6318761e+03
 1.2491740e+01   4.5897407e+03
 1.2496420e+01   4.5375932e+03
 1.2501100e+01   4.4821080e+03
 1.2505780e+01   4.4269861e+03
 1.2510460e+01   4.3669871e+03
 1.2515140e+01   4.3226930e+03
 1.2519820e+01   4.2694804e+03
 1.2524500e+01   4.2256609e+03
 1.2529180e+01   4.1835433e+03
 1.2533860e+01   4.1531580e+03
 1.2538540e+01   4.1334633e+03
 1.2543220e+01   4.0996414e+03
 1.2547900e+01   4.0963001e+03
 1.2552580e+01   4.0545702e+03
 1.2557260e+01   4.0483326e+03
 1.2561940e+01   4.0351426e+03
 1.2566620e+01   4.0228289e+03
 1.2571300e+01   4.0150366e+03
 1.2575980e+01   4.0027372e+03
 1.2580660e+01   4.0016999e+03
 1.2585340e+01   3.9902097e+03
 1.2590020e+01   3.9881442e+03
 1.2594700e+01   3.9962419e+03
 1.2599380e+01   3.9871436e+03
 1.2604060e+01   3.9845295e+03
 1.2608740e+01   3.9847080e+03
 1.2613420e+01   3.9866785e+03
 1.2618100e+01   3.9887529e+03
 1.2622780e+01   3.9764981e+03
 1.2627460e+01   3.9868651e+03
 1.2632140e+01   4.0007302e+03
 1.2636820e+01   4.0000634e+03
 1.2641500e+01   4.0054790e+03
 1.2646180e+01   4.0249819e+03
 1.2650860e+01   4.0386457e+03
 1.2655540e+01   4.0607078e+03
 1.2660220e+01   4.0904121e+03
 1.2664900e+01   4.1047427e+03
 1.2669580e+01   4.1498900e+03
 1.2674260e+01   4.1988909e+03
 1.2678940e+01   4.2661226e+03
 1.2683620e+01   4.3300832e+03
 1.2688300e+01   4.4021651e+03
 1.2692980e+01   4.4925869e+03
 1.2697660e+01   4.5909520e+03
