MA2-00001.tif Azm= 0.00
2-Theta Angle (Degrees)
Intensity
       2500
 1.0023400e+00   7.8731575e+03
 1.0070200e+00   7.8724905e+03
 1.0117000e+00   7.8256809e+03
 1.0163800e+00   7.8204790e+03
 1.0210600e+00   7.7346811e+03
 1.0257400e+00   7.7516466e+03
 1.0304199e+00   7.7057237e+03
 1.0351000e+00   7.6947917e+03
 1.0397800e+00   7.6888978e+03
 1.0444601e+00   7.6275792e+03
 1.0491400e+00   7.6052038e+03
 1.0538200e+00   7.6140458e+03
 1.0585001e+00   7.5492829e+03
 1.0631800e+00   7.5448550e+03
 1.0678600e+00   7.4937931e+03
 1.0725400e+00   7.4886494e+03
 1.0772200e+00   7.4691644e+03
 1.0819000e+00   7.4488455e+03
 1.0865800e+00   7.4490510e+03
 1.0912600e+00   7.4423796e+03
 1.0959400e+00   7.4263584e+03
 1.1006200e+00   7.4156667e+03
 1.1052999e+00   7.4079886e+03
 1.1099800e+00   7.3425354e+03
 1.1146600e+00   7.3476899e+03
 1.1193399e+00   7.3649086e+03
 1.1240200e+00   7.3173698e+03
 1.1287000e+00   7.2836679e+03
 1.1333801e+00   7.2776218e+03
 1.1380600e+00   7.2392768e+03
 1.1427400e+00   7.2746774e+03
 1.1474200e+00   7.2187232e+03
 1.1521000e+00   7.2213568e+03
 1.1567800e+00   7.2195321e+03
 1.1614600e+00   7.2172917e+03
 1.1661400e+00   7.1791251e+03
 1.1708200e+00   7.2160260e+03
 1.1755000e+00   7.1910484e+03
 1.1801800e+00   7.1797669e+03
 1.1848600e+00   7.1544305e+03
 1.1895400e+00   7.1696100e+03
 1.1942199e+00   7.1527459e+03
 1.1989000e+00   7.1362076e+03
 1.2035800e+00   7.1496028e+03
 1.2082601e+00   7.1125124e+03
 1.2129400e+00   7.1214863e+03
 1.2176200e+00   7.0991532e+03
 1.2223001e+00   7.0979486e+03
 1.2269800e+00   7.1286112e+03
 1.2316600e+00   7.0919586e+03
 1.2363400e+00   7.1063707e+03
 1.2410200e+00   7.0945493e+03
 1.2457000e+00   7.0896581e+03
 1.2503800e+00   7.0496976e+03
 1.2550600e+00   7.0783330e+03
 1.2597400e+00   7.1254321e+03
 1.2644200e+00   7.0532692e+03
 1.2691000e+00   7.0863360e+03
 1.2737800e+00   7.0698024e+03
 1.2784600e+00   7.0827461e+03
 1.2831399e+00   7.0786665e+03
 1.2878200e+00   7.0626780e+03
 1.2925000e+00   7.0805005e+03
 1.2971801e+00   7.1055302e+03
 1.3018600e+00   7.0368769e+03
 1.3065400e+00   7.1275727e+03
 1.3112200e+00   7.0656273e+03
 1.3159000e+00   7.0824900e+03
 1.3205800e+00   7.1402461e+03
 1.3252600e+00   7.1101730e+03
 1.3299400e+00   7.1070037e+03
 1.3346200e+00   7.1383042e+03
 1.3393000e+00   7.1446956e+03
 1.3439800e+00   7.1038429e+03
 1.3486600e+00   7.1276060e+03
 1.3533400e+00   7.1029346e+03
 1.3580199e+00   7.1483259e+03
 1.3627000e+00   7.1577653e+03
 1.3673800e+00   7.1435905e+03
 1.3720599e+00   7.1383832e+03
 1.3767400e+00   7.1684660e+03
 1.3814200e+00   7.1845902e+03
 1.3861001e+00   7.1780385e+03
 1.3907800e+00   7.1907548e+03
 1.3954600e+00   7.2229588e+03
 1.4001400e+00   7.2206485e+03
 1.4048200e+00   7.2295574e+03
 1.4095000e+00   7.2703150e+03
 1.4141800e+00   7.2816074e+03
 1.4188600e+00   7.2705168e+03
 1.4235400e+00   7.3124014e+03
 1.4282200e+00   7.3515270e+03
 1.4329000e+00   7.3291461e+03
 1.4375800e+00   7.3534252e+03
 1.4422600e+00   7.3933925e+03
 1.4469399e+00   7.4033691e+03
 1.4516200e+00   7.4411654e+03
 1.4563000e+00   7.4593760e+03
 1.4609801e+00   7.4729650e+03
 1.4656600e+00   7.4974873e+03
 1.4703400e+00   7.5569859e+03
 1.4750201e+00   7.5663829e+03
 1.4797000e+00   7.6055063e+03
 1.4843800e+00   7.6026163e+03
 1.4890600e+00   7.6234940e+03
 1.4937400e+00   7.6518596e+03
 1.4984200e+00   7.6500590e+03
 1.5031000e+00   7.6653304e+03
 1.5077800e+00   7.6967603e+03
 1.5124600e+00   7.6912418e+03
 1.5171400e+00   7.6844807e+03
 1.5218199e+00   7.7175540e+03
 1.5265000e+00   7.6863548e+03
 1.5311800e+00   7.7142068e+03
 1.5358599e+00   7.6962812e+03
 1.5405400e+00   7.7182731e+03
 1.5452200e+00   7.6864246e+03
 1.5499001e+00   7.7032408e+03
 1.5545800e+00   7.6804662e+03
 1.5592600e+00   7.6685076e+03
 1.5639400e+00   7.6504042e+03
 1.5686200e+00   7.6361838e+03
 1.5733000e+00   7.6400051e+03
 1.5779800e+00   7.6537789e+03
 1.5826600e+00   7.6373353e+03
 1.5873400e+00   7.6491574e+03
 1.5920200e+00   7.6406046e+03
 1.5967000e+00   7.6665201e+03
 1.6013800e+00   7.6358569e+03
 1.6060600e+00   7.6375343e+03
 1.6107399e+00   7.5977137e+03
 1.6154200e+00   7.6286755e+03
 1.6201000e+00   7.6197854e+03
 1.6247801e+00   7.6144530e+03
 1.6294600e+00   7.6112059e+03
 1.6341400e+00   7.6415440e+03
 1.6388201e+00   7.5994466e+03
 1.6435000e+00   7.6119378e+03
 1.6481800e+00   7.6184991e+03
 1.6528600e+00   7.6222539e+03
 1.6575400e+00   7.6183426e+03
 1.6622200e+00   7.6279647e+03
 1.6669000e+00   7.6133493e+03
 1.6715800e+00   7.6239912e+03
 1.6762600e+00   7.6145136e+03
 1.6809400e+00   7.6418297e+03
 1.6856200e+00   7.6279377e+03
 1.6903000e+00   7.6399014e+03
 1.6949800e+00   7.6520870e+03
 1.6996599e+00   7.6442799e+03
 1.7043400e+00   7.6398334e+03
 1.7090200e+00   7.6733959e+03
 1.7137001e+00   7.6545259e+03
 1.7183800e+00   7.6554382e+03
 1.7230600e+00   7.6797237e+03
 1.7277400e+00   7.6566373e+03
 1.7324200e+00   7.6994280e+03
 1.7371000e+00   7.6767743e+03
 1.7417800e+00   7.6961685e+03
 1.7464600e+00   7.6938282e+03
 1.7511400e+00   7.7108983e+03
 1.7558200e+00   7.6861151e+03
 1.7605000e+00   7.7125536e+03
 1.7651800e+00   7.7022829e+03
 1.7698600e+00   7.7211120e+03
 1.7745399e+00   7.7314612e+03
 1.7792200e+00   7.7486833e+03
 1.7839000e+00   7.7600142e+03
 1.7885799e+00   7.7575559e+03
 1.7932600e+00   7.7706783e+03
 1.7979400e+00   7.7772808e+03
 1.8026201e+00   7.8208169e+03
 1.8073000e+00   7.8275581e+03
 1.8119800e+00   7.8434469e+03
 1.8166600e+00   7.8511798e+03
 1.8213400e+00   7.8699612e+03
 1.8260200e+00   7.9011278e+03
 1.8307000e+00   7.9105357e+03
 1.8353800e+00   7.9294145e+03
 1.8400600e+00   7.9181457e+03
 1.8447400e+00   7.9512352e+03
 1.8494200e+00   7.9641356e+03
 1.8541000e+00   7.9674948e+03
 1.8587800e+00   8.0149860e+03
 1.8634599e+00   8.0392232e+03
 1.8681400e+00   8.0333699e+03
 1.8728200e+00   8.0761634e+03
 1.8775001e+00   8.0901974e+03
 1.8821800e+00   8.1214164e+03
 1.8868600e+00   8.1591292e+03
 1.8915401e+00   8.1715858e+03
 1.8962200e+00   8.1843316e+03
 1.9009000e+00   8.2024711e+03
 1.9055800e+00   8.2359392e+03
 1.9102600e+00   8.2685831e+03
 1.9149400e+00   8.2719229e+03
 1.9196200e+00   8.2854055e+03
 1.9243000e+00   8.3262454e+03
 1.9289800e+00   8.3638350e+03
 1.9336600e+00   8.3764380e+03
 1.9383399e+00   8.3900413e+03
 1.9430200e+00   8.4092461e+03
 1.9477000e+00   8.4216190e+03
 1.9523799e+00   8.4587518e+03
 1.9570600e+00   8.4971052e+03
 1.9617400e+00   8.5607313e+03
 1.9664201e+00   8.5451198e+03
 1.9711000e+00   8.7279605e+03
 1.9757800e+00   8.6005207e+03
 1.9804600e+00   8.6850724e+03
 1.9851400e+00   8.6091888e+03
 1.9898200e+00   8.6488985e+03
 1.9945000e+00   8.6546996e+03
 1.9991800e+00   8.6730305e+03
 2.0038600e+00   8.7003792e+03
 2.0085399e+00   8.7211244e+03
 2.0132201e+00   8.7619783e+03
 2.0179000e+00   8.7526189e+03
 2.0225799e+00   8.7794571e+03
 2.0272601e+00   8.8118929e+03
 2.0319400e+00   8.8140805e+03
 2.0366199e+00   8.8549895e+03
 2.0413001e+00   8.8891466e+03
 2.0459800e+00   8.8636919e+03
 2.0506599e+00   8.8993086e+03
 2.0553401e+00   8.9527195e+03
 2.0600200e+00   8.9527245e+03
 2.0646999e+00   8.9874218e+03
 2.0693800e+00   9.0040000e+03
 2.0740600e+00   9.0344848e+03
 2.0787399e+00   9.0491703e+03
 2.0834200e+00   9.0764022e+03
 2.0881000e+00   9.0821956e+03
 2.0927801e+00   9.1412652e+03
 2.0974600e+00   9.1598868e+03
 2.1021399e+00   9.2470671e+03
 2.1068201e+00   9.2643246e+03
 2.1115000e+00   9.2946114e+03
 2.1161799e+00   9.3323036e+03
 2.1208601e+00   9.3194183e+03
 2.1255400e+00   9.3544544e+03
 2.1302199e+00   9.3940377e+03
 2.1349001e+00   9.3903247e+03
 2.1395800e+00   9.4505977e+03
 2.1442599e+00   9.4767030e+03
 2.1489401e+00   9.5232841e+03
 2.1536200e+00   9.5569164e+03
 2.1582999e+00   9.6149607e+03
 2.1629801e+00   9.6507198e+03
 2.1676600e+00   9.7140193e+03
 2.1723399e+00   9.7975563e+03
 2.1770201e+00   9.8680403e+03
 2.1817000e+00   9.9774256e+03
 2.1863799e+00   1.0069917e+04
 2.1910601e+00   1.0176527e+04
 2.1957400e+00   1.0341054e+04
 2.2004199e+00   1.0558741e+04
 2.2051001e+00   1.0881636e+04
 2.2097800e+00   1.1296679e+04
 2.2144599e+00   1.1876861e+04
 2.2191401e+00   1.2807978e+04
 2.2238200e+00   1.4047263e+04
 2.2284999e+00   1.5866788e+04
 2.2331800e+00   1.8159413e+04
 2.2378600e+00   2.1053233e+04
 2.2425399e+00   2.3760299e+04
 2.2472200e+00   2.6224413e+04
 2.2519000e+00   2.7472427e+04
 2.2565801e+00   2.7483879e+04
 2.2612600e+00   2.6176321e+04
 2.2659400e+00   2.3745181e+04
 2.2706201e+00   2.0917179e+04
 2.2753000e+00   1.8185617e+04
 2.2799799e+00   1.5990101e+04
 2.2846601e+00   1.4217989e+04
 2.2893400e+00   1.3065249e+04
 2.2940199e+00   1.2246409e+04
 2.2987001e+00   1.1695941e+04
 2.3033800e+00   1.1352310e+04
 2.3080599e+00   1.1112283e+04
 2.3127401e+00   1.0945828e+04
 2.3174200e+00   1.0890828e+04
 2.3220999e+00   1.0812907e+04
 2.3267801e+00   1.0752498e+04
 2.3314600e+00   1.0757869e+04
 2.3361399e+00   1.0746093e+04
 2.3408201e+00   1.0731685e+04
 2.3455000e+00   1.0778703e+04
 2.3501799e+00   1.0759324e+04
 2.3548601e+00   1.0804668e+04
 2.3595400e+00   1.0820954e+04
 2.3642199e+00   1.0815473e+04
 2.3689001e+00   1.0844791e+04
 2.3735800e+00   1.0881541e+04
 2.3782599e+00   1.0926174e+04
 2.3829401e+00   1.0927050e+04
 2.3876200e+00   1.0990564e+04
 2.3922999e+00   1.1000103e+04
 2.3969800e+00   1.1021522e+04
 2.4016600e+00   1.1100035e+04
 2.4063399e+00   1.1109363e+04
 2.4110200e+00   1.1118004e+04
 2.4157000e+00   1.1159789e+04
 2.4203801e+00   1.1187968e+04
 2.4250600e+00   1.1231163e+04
 2.4297400e+00   1.1255728e+04
 2.4344201e+00   1.1312166e+04
 2.4391000e+00   1.1342833e+04
 2.4437799e+00   1.1380096e+04
 2.4484601e+00   1.1406919e+04
 2.4531400e+00   1.1445436e+04
 2.4578199e+00   1.1471653e+04
 2.4625001e+00   1.1508108e+04
 2.4671800e+00   1.1544839e+04
 2.4718599e+00   1.1590768e+04
 2.4765401e+00   1.1627377e+04
 2.4812200e+00   1.1692896e+04
 2.4858999e+00   1.1727345e+04
 2.4905801e+00   1.1755123e+04
 2.4952600e+00   1.1797029e+04
 2.4999399e+00   1.1843082e+04
 2.5046201e+00   1.1861791e+04
 2.5093000e+00   1.1903049e+04
 2.5139799e+00   1.1929081e+04
 2.5186601e+00   1.1962561e+04
 2.5233400e+00   1.2018201e+04
 2.5280199e+00   1.2052949e+04
 2.5327001e+00   1.2091073e+04
 2.5373800e+00   1.2100884e+04
 2.5420599e+00   1.2197021e+04
 2.5467401e+00   1.2181256e+04
 2.5514200e+00   1.2214810e+04
 2.5560999e+00   1.2252626e+04
 2.5607800e+00   1.2297698e+04
 2.5654600e+00   1.2338160e+04
 2.5701399e+00   1.2348866e+04
 2.5748200e+00   1.2417835e+04
 2.5795000e+00   1.2415124e+04
 2.5841801e+00   1.2478872e+04
 2.5888600e+00   1.2498892e+04
 2.5935400e+00   1.2501862e+04
 2.5982201e+00   1.2539307e+04
 2.6029000e+00   1.2554170e+04
 2.6075799e+00   1.2580504e+04
 2.6122601e+00   1.2605592e+04
 2.6169400e+00   1.2635474e+04
 2.6216199e+00   1.2639534e+04
 2.6263001e+00   1.2670594e+04
 2.6309800e+00   1.2697766e+04
 2.6356599e+00   1.2721908e+04
 2.6403401e+00   1.2749003e+04
 2.6450200e+00   1.2765565e+04
 2.6496999e+00   1.2803054e+04
 2.6543801e+00   1.2817095e+04
 2.6590600e+00   1.2849901e+04
 2.6637399e+00   1.2840688e+04
 2.6684201e+00   1.2849447e+04
 2.6731000e+00   1.2888881e+04
 2.6777799e+00   1.2906449e+04
 2.6824601e+00   1.2904111e+04
 2.6871400e+00   1.2939662e+04
 2.6918199e+00   1.2924169e+04
 2.6965001e+00   1.2949118e+04
 2.7011800e+00   1.2941694e+04
 2.7058599e+00   1.2959368e+04
 2.7105401e+00   1.2990598e+04
 2.7152200e+00   1.2968577e+04
 2.7198999e+00   1.2969445e+04
 2.7245800e+00   1.2975406e+04
 2.7292600e+00   1.2982165e+04
 2.7339399e+00   1.2984201e+04
 2.7386200e+00   1.2968984e+04
 2.7433000e+00   1.2940956e+04
 2.7479801e+00   1.2961302e+04
 2.7526600e+00   1.2974951e+04
 2.7573400e+00   1.2954313e+04
 2.7620201e+00   1.2920989e+04
 2.7667000e+00   1.2935633e+04
 2.7713799e+00   1.2923470e+04
 2.7760601e+00   1.2932133e+04
 2.7807400e+00   1.2913626e+04
 2.7854199e+00   1.2884162e+04
 2.7901001e+00   1.2891220e+04
 2.7947800e+00   1.2856675e+04
 2.7994599e+00   1.2863578e+04
 2.8041401e+00   1.2821482e+04
 2.8088200e+00   1.2842402e+04
 2.8134999e+00   1.2815495e+04
 2.8181801e+00   1.2814707e+04
 2.8228600e+00   1.2806752e+04
 2.8275399e+00   1.2786579e+04
 2.8322201e+00   1.2764526e+04
 2.8369000e+00   1.2751672e+04
 2.8415799e+00   1.2737847e+04
 2.8462601e+00   1.2700004e+04
 2.8509400e+00   1.2700797e+04
 2.8556199e+00   1.2699854e+04
 2.8603001e+00   1.2668748e+04
 2.8649800e+00   1.2663616e+04
 2.8696599e+00   1.2638939e+04
 2.8743401e+00   1.2615413e+04
 2.8790200e+00   1.2614690e+04
 2.8836999e+00   1.2566088e+04
 2.8883801e+00   1.2572969e+04
 2.8930600e+00   1.2533467e+04
 2.8977399e+00   1.2516391e+04
 2.9024200e+00   1.2530610e+04
 2.9071000e+00   1.2479262e+04
 2.9117801e+00   1.2454106e+04
 2.9164600e+00   1.2456076e+04
 2.9211400e+00   1.2415820e+04
 2.9258201e+00   1.2401231e+04
 2.9305000e+00   1.2369833e+04
 2.9351799e+00   1.2361618e+04
 2.9398601e+00   1.2337148e+04
 2.9445400e+00   1.2348145e+04
 2.9492199e+00   1.2294534e+04
 2.9539001e+00   1.2291445e+04
 2.9585800e+00   1.2264386e+04
 2.9632599e+00   1.2260317e+04
 2.9679401e+00   1.2199383e+04
 2.9726200e+00   1.2187335e+04
 2.9772999e+00   1.2167320e+04
 2.9819801e+00   1.2145138e+04
 2.9866600e+00   1.2103455e+04
 2.9913399e+00   1.2059644e+04
 2.9960201e+00   1.2066066e+04
 3.0007000e+00   1.2033621e+04
 3.0053799e+00   1.2007322e+04
 3.0100601e+00   1.1975392e+04
 3.0147400e+00   1.1955172e+04
 3.0194199e+00   1.1927214e+04
 3.0241001e+00   1.1903623e+04
 3.0287800e+00   1.1909692e+04
 3.0334599e+00   1.1870439e+04
 3.0381401e+00   1.1841661e+04
 3.0428200e+00   1.1801595e+04
 3.0474999e+00   1.1762611e+04
 3.0521801e+00   1.1725571e+04
 3.0568600e+00   1.1695040e+04
 3.0615399e+00   1.1686315e+04
 3.0662200e+00   1.1621263e+04
 3.0709000e+00   1.1608369e+04
 3.0755799e+00   1.1586667e+04
 3.0802600e+00   1.1571766e+04
 3.0849400e+00   1.1526014e+04
 3.0896201e+00   1.1518814e+04
 3.0943000e+00   1.1492269e+04
 3.0989799e+00   1.1442606e+04
 3.1036601e+00   1.1420279e+04
 3.1083400e+00   1.1432375e+04
 3.1130199e+00   1.1385339e+04
 3.1177001e+00   1.1374609e+04
 3.1223800e+00   1.1344207e+04
 3.1270599e+00   1.1330677e+04
 3.1317401e+00   1.1292105e+04
 3.1364200e+00   1.1288649e+04
 3.1410999e+00   1.1281826e+04
 3.1457801e+00   1.1250550e+04
 3.1504600e+00   1.1240749e+04
 3.1551399e+00   1.1209725e+04
 3.1598201e+00   1.1197020e+04
 3.1645000e+00   1.1161811e+04
 3.1691799e+00   1.1153301e+04
 3.1738601e+00   1.1122817e+04
 3.1785400e+00   1.1104656e+04
 3.1832199e+00   1.1099199e+04
 3.1879001e+00   1.1096748e+04
 3.1925800e+00   1.1078888e+04
 3.1972599e+00   1.1083466e+04
 3.2019401e+00   1.1055175e+04
 3.2066200e+00   1.1013679e+04
 3.2112999e+00   1.1040189e+04
 3.2159801e+00   1.0979809e+04
 3.2206600e+00   1.0971450e+04
 3.2253399e+00   1.0955838e+04
 3.2300200e+00   1.0934723e+04
 3.2347000e+00   1.0941701e+04
 3.2393799e+00   1.0921906e+04
 3.2440600e+00   1.0909776e+04
 3.2487400e+00   1.0885625e+04
 3.2534201e+00   1.0861807e+04
 3.2581000e+00   1.0861705e+04
 3.2627800e+00   1.0863876e+04
 3.2674601e+00   1.0820685e+04
 3.2721400e+00   1.0824931e+04
 3.2768199e+00   1.0828337e+04
 3.2815001e+00   1.0788668e+04
 3.2861800e+00   1.0818694e+04
 3.2908599e+00   1.0772657e+04
 3.2955401e+00   1.0794865e+04
 3.3002200e+00   1.0774267e+04
 3.3048999e+00   1.0770042e+04
 3.3095801e+00   1.0759638e+04
 3.3142600e+00   1.0789846e+04
 3.3189399e+00   1.0741023e+04
 3.3236201e+00   1.0768555e+04
 3.3283000e+00   1.0746220e+04
 3.3329799e+00   1.0741934e+04
 3.3376601e+00   1.0729396e+04
 3.3423400e+00   1.0731545e+04
 3.3470199e+00   1.0704149e+04
 3.3517001e+00   1.0733536e+04
 3.3563800e+00   1.0674617e+04
 3.3610599e+00   1.0708755e+04
 3.3657401e+00   1.0708676e+04
 3.3704200e+00   1.0714517e+04
 3.3750999e+00   1.0707114e+04
 3.3797801e+00   1.0717837e+04
 3.3844600e+00   1.0688913e+04
 3.3891399e+00   1.0697146e+04
 3.3938200e+00   1.0700709e+04
 3.3985000e+00   1.0715936e+04
 3.4031799e+00   1.0703990e+04
 3.4078600e+00   1.0699235e+04
 3.4125400e+00   1.0714921e+04
 3.4172201e+00   1.0723595e+04
 3.4219000e+00   1.0721328e+04
 3.4265800e+00   1.0717814e+04
 3.4312601e+00   1.0737836e+04
 3.4359400e+00   1.0753131e+04
 3.4406199e+00   1.0732238e+04
 3.4453001e+00   1.0740364e+04
 3.4499800e+00   1.0752263e+04
 3.4546599e+00   1.0741600e+04
 3.4593401e+00   1.0732789e+04
 3.4640200e+00   1.0750021e+04
 3.4686999e+00   1.0757437e+04
 3.4733801e+00   1.0716931e+04
 3.4780600e+00   1.0770573e+04
 3.4827399e+00   1.0726366e+04
 3.4874201e+00   1.0757173e+04
 3.4921000e+00   1.0752493e+04
 3.4967799e+00   1.0739739e+04
 3.5014601e+00   1.0736108e+04
 3.5061400e+00   1.0764357e+04
 3.5108199e+00   1.0720929e+04
 3.5155001e+00   1.0768455e+04
 3.5201800e+00   1.0767827e+04
 3.5248599e+00   1.0738449e+04
 3.5295401e+00   1.0783152e+04
 3.5342200e+00   1.0733683e+04
 3.5388999e+00   1.0770152e+04
 3.5435801e+00   1.0768557e+04
 3.5482600e+00   1.0749060e+04
 3.5529399e+00   1.0769121e+04
 3.5576200e+00   1.0779677e+04
 3.5623000e+00   1.0741643e+04
 3.5669799e+00   1.0812655e+04
 3.5716600e+00   1.0755725e+04
 3.5763400e+00   1.0800079e+04
 3.5810201e+00   1.0801795e+04
 3.5857000e+00   1.0788493e+04
 3.5903800e+00   1.0764908e+04
 3.5950601e+00   1.0844056e+04
 3.5997400e+00   1.0766115e+04
 3.6044199e+00   1.0849243e+04
 3.6091001e+00   1.0812727e+04
 3.6137800e+00   1.0799032e+04
 3.6184599e+00   1.0861457e+04
 3.6231401e+00   1.0814789e+04
 3.6278200e+00   1.0806253e+04
 3.6324999e+00   1.0885792e+04
 3.6371801e+00   1.0804317e+04
 3.6418600e+00   1.0883318e+04
 3.6465399e+00   1.0904825e+04
 3.6512201e+00   1.0812473e+04
 3.6559000e+00   1.0951668e+04
 3.6605799e+00   1.0879090e+04
 3.6652601e+00   1.0920230e+04
 3.6699400e+00   1.0922146e+04
 3.6746199e+00   1.0931431e+04
 3.6793001e+00   1.0934138e+04
 3.6839800e+00   1.1111865e+04
 3.6886599e+00   1.0890821e+04
 3.6933401e+00   1.1131351e+04
 3.6980200e+00   1.0949271e+04
 3.7026999e+00   1.1147000e+04
 3.7073801e+00   1.1077099e+04
 3.7120600e+00   1.1173227e+04
 3.7167399e+00   1.1046363e+04
 3.7214200e+00   1.1351629e+04
 3.7261000e+00   1.1135472e+04
 3.7307799e+00   1.1239220e+04
 3.7354600e+00   1.1281480e+04
 3.7401400e+00   1.1279484e+04
 3.7448201e+00   1.1436052e+04
 3.7495000e+00   1.1348901e+04
 3.7541800e+00   1.1429622e+04
 3.7588601e+00   1.1370190e+04
 3.7635400e+00   1.1465657e+04
 3.7682199e+00   1.1515609e+04
 3.7729001e+00   1.1712353e+04
 3.7775800e+00   1.1485356e+04
 3.7822599e+00   1.1824737e+04
 3.7869401e+00   1.1635264e+04
 3.7916200e+00   1.1858900e+04
 3.7962999e+00   1.1878821e+04
 3.8009801e+00   1.2131668e+04
 3.8056600e+00   1.1797878e+04
 3.8103399e+00   1.2386683e+04
 3.8150201e+00   1.1833527e+04
 3.8197000e+00   1.2582021e+04
 3.8243799e+00   1.2343065e+04
 3.8290601e+00   1.2677836e+04
 3.8337400e+00   1.2396704e+04
 3.8384199e+00   1.3083341e+04
 3.8431001e+00   1.2609114e+04
 3.8477800e+00   1.3240041e+04
 3.8524599e+00   1.3137703e+04
 3.8571401e+00   1.3549714e+04
 3.8618200e+00   1.3561564e+04
 3.8664999e+00   1.3597032e+04
 3.8711801e+00   1.3862018e+04
 3.8758600e+00   1.4286970e+04
 3.8805399e+00   1.4434071e+04
 3.8852201e+00   1.5281731e+04
 3.8899000e+00   1.5052090e+04
 3.8945799e+00   1.5992786e+04
 3.8992600e+00   1.6103521e+04
 3.9039400e+00   1.8032365e+04
 3.9086201e+00   1.7105800e+04
 3.9133000e+00   2.3193869e+04
 3.9179800e+00   1.9902977e+04
 3.9226601e+00   3.3411580e+04
 3.9273400e+00   2.4898711e+04
 3.9320199e+00   5.4373636e+04
 3.9367001e+00   3.8951117e+04
 3.9413800e+00   8.3913671e+04
 3.9460599e+00   6.8144013e+04
 3.9507401e+00   8.9814782e+04
 3.9554200e+00   7.3518719e+04
 3.9600999e+00   8.8242374e+04
 3.9647801e+00   8.6354262e+04
 3.9694600e+00   1.0242319e+05
 3.9741399e+00   1.0678335e+05
 3.9788201e+00   8.8633969e+04
 3.9835000e+00   9.1535157e+04
 3.9881799e+00   5.4912364e+04
 3.9928601e+00   6.5981315e+04
 3.9975400e+00   3.6054191e+04
 4.0022202e+00   3.7321776e+04
 4.0068998e+00   3.6000871e+04
 4.0115800e+00   2.9865942e+04
 4.0162601e+00   1.9911133e+04
 4.0209398e+00   2.0792081e+04
 4.0256200e+00   1.6987745e+04
 4.0303001e+00   1.7257910e+04
 4.0349798e+00   1.4929546e+04
 4.0396600e+00   1.5369602e+04
 4.0443401e+00   1.4495272e+04
 4.0490198e+00   1.3697068e+04
 4.0537000e+00   1.3974003e+04
 4.0583801e+00   1.2922371e+04
 4.0630598e+00   1.3446281e+04
 4.0677400e+00   1.2539871e+04
 4.0724201e+00   1.2661909e+04
 4.0770998e+00   1.2107685e+04
 4.0817800e+00   1.2277286e+04
 4.0864601e+00   1.1993024e+04
 4.0911398e+00   1.2020652e+04
 4.0958200e+00   1.1570046e+04
 4.1005001e+00   1.1497458e+04
 4.1051798e+00   1.1339320e+04
 4.1098599e+00   1.0996550e+04
 4.1145401e+00   1.1277418e+04
 4.1192198e+00   1.0934580e+04
 4.1238999e+00   1.0832808e+04
 4.1285801e+00   1.0664903e+04
 4.1332598e+00   1.0559551e+04
 4.1379399e+00   1.0387802e+04
 4.1426201e+00   1.0579901e+04
 4.1472998e+00   1.0019174e+04
 4.1519799e+00   1.0306550e+04
 4.1566601e+00   9.9661985e+03
 4.1613402e+00   1.0057026e+04
 4.1660199e+00   9.7470049e+03
 4.1707001e+00   9.9378967e+03
 4.1753802e+00   9.5652837e+03
 4.1800599e+00   9.8410597e+03
 4.1847401e+00   9.4304565e+03
 4.1894202e+00   9.6531749e+03
 4.1940999e+00   9.3569862e+03
 4.1987801e+00   9.4374262e+03
 4.2034602e+00   9.3540483e+03
 4.2081399e+00   9.3219432e+03
 4.2128201e+00   9.2325976e+03
 4.2175002e+00   9.2873837e+03
 4.2221799e+00   9.0995667e+03
 4.2268600e+00   9.0146783e+03
 4.2315402e+00   9.1194863e+03
 4.2362199e+00   8.8613384e+03
 4.2409000e+00   8.9404825e+03
 4.2455802e+00   8.8350730e+03
 4.2502599e+00   8.7378809e+03
 4.2549400e+00   8.7052235e+03
 4.2596202e+00   8.7261315e+03
 4.2642999e+00   8.5914545e+03
 4.2689800e+00   8.6937378e+03
 4.2736602e+00   8.4592327e+03
 4.2783399e+00   8.5582724e+03
 4.2830200e+00   8.3670784e+03
 4.2877002e+00   8.4075295e+03
 4.2923799e+00   8.2784870e+03
 4.2970600e+00   8.3771709e+03
 4.3017402e+00   8.1802012e+03
 4.3064198e+00   8.2608576e+03
 4.3111000e+00   8.1006615e+03
 4.3157802e+00   8.1737028e+03
 4.3204598e+00   8.1383612e+03
 4.3251400e+00   8.0418987e+03
 4.3298202e+00   8.0460764e+03
 4.3344998e+00   7.9564116e+03
 4.3391800e+00   7.8935858e+03
 4.3438601e+00   7.9431585e+03
 4.3485398e+00   7.8920856e+03
 4.3532200e+00   7.8632032e+03
 4.3579001e+00   7.8593573e+03
 4.3625798e+00   7.7463127e+03
 4.3672600e+00   7.7854147e+03
 4.3719401e+00   7.7369836e+03
 4.3766198e+00   7.7201295e+03
 4.3813000e+00   7.7059549e+03
 4.3859801e+00   7.6575769e+03
 4.3906598e+00   7.6123963e+03
 4.3953400e+00   7.6438622e+03
 4.4000201e+00   7.5704980e+03
 4.4046998e+00   7.6271790e+03
 4.4093800e+00   7.5582356e+03
 4.4140601e+00   7.5424164e+03
 4.4187398e+00   7.5356604e+03
 4.4234200e+00   7.5304898e+03
 4.4281001e+00   7.4671730e+03
 4.4327798e+00   7.5616079e+03
 4.4374599e+00   7.4915014e+03
 4.4421401e+00   7.5229998e+03
 4.4468198e+00   7.5433555e+03
 4.4514999e+00   7.5221121e+03
 4.4561801e+00   7.5905988e+03
 4.4608598e+00   7.6441810e+03
 4.4655399e+00   7.6989207e+03
 4.4702201e+00   7.8706560e+03
 4.4748998e+00   8.0460158e+03
 4.4795799e+00   8.3057975e+03
 4.4842601e+00   8.7040251e+03
 4.4889398e+00   9.1197714e+03
 4.4936199e+00   9.6481366e+03
 4.4983001e+00   1.0144761e+04
 4.5029802e+00   1.0514048e+04
 4.5076599e+00   1.0730668e+04
 4.5123401e+00   1.0688048e+04
 4.5170202e+00   1.0362719e+04
 4.5216999e+00   9.9535076e+03
 4.5263801e+00   9.4047900e+03
 4.5310602e+00   8.8454859e+03
 4.5357399e+00   8.3933325e+03
 4.5404201e+00   7.9741684e+03
 4.5451002e+00   7.6781622e+03
 4.5497799e+00   7.4597884e+03
 4.5544600e+00   7.2905790e+03
 4.5591402e+00   7.1753547e+03
 4.5638199e+00   7.0843603e+03
 4.5685000e+00   6.9919840e+03
 4.5731802e+00   6.9846264e+03
 4.5778599e+00   6.9363620e+03
 4.5825400e+00   6.8989913e+03
 4.5872202e+00   6.8912567e+03
 4.5918999e+00   6.8272838e+03
 4.5965800e+00   6.8081247e+03
 4.6012602e+00   6.7704413e+03
 4.6059399e+00   6.7749542e+03
 4.6106200e+00   6.7748896e+03
 4.6153002e+00   6.7515435e+03
 4.6199799e+00   6.7110957e+03
 4.6246600e+00   6.7083899e+03
 4.6293402e+00   6.6848140e+03
 4.6340199e+00   6.6773184e+03
 4.6387000e+00   6.6909498e+03
 4.6433802e+00   6.6626415e+03
 4.6480598e+00   6.6751081e+03
 4.6527400e+00   6.6456725e+03
 4.6574202e+00   6.6337075e+03
 4.6620998e+00   6.7052237e+03
 4.6667800e+00   6.6932023e+03
 4.6714602e+00   6.7141899e+03
 4.6761398e+00   6.7746160e+03
 4.6808200e+00   6.8771977e+03
 4.6855001e+00   7.0131324e+03
 4.6901798e+00   7.2420431e+03
 4.6948600e+00   7.5420281e+03
 4.6995401e+00   7.9837084e+03
 4.7042198e+00   8.4952864e+03
 4.7089000e+00   9.0565710e+03
 4.7135801e+00   9.6430996e+03
 4.7182598e+00   1.0053386e+04
 4.7229400e+00   1.0284097e+04
 4.7276201e+00   1.0177210e+04
 4.7322998e+00   9.8658564e+03
 4.7369800e+00   9.3404994e+03
 4.7416601e+00   8.7540959e+03
 4.7463398e+00   8.1924578e+03
 4.7510200e+00   7.7292172e+03
 4.7557001e+00   7.3347374e+03
 4.7603798e+00   7.0500979e+03
 4.7650599e+00   6.8627135e+03
 4.7697401e+00   6.7162532e+03
 4.7744198e+00   6.6276207e+03
 4.7790999e+00   6.5400169e+03
 4.7837801e+00   6.4846469e+03
 4.7884598e+00   6.4520370e+03
 4.7931399e+00   6.4224290e+03
 4.7978201e+00   6.4054691e+03
 4.8024998e+00   6.3965953e+03
 4.8071799e+00   6.3836056e+03
 4.8118601e+00   6.3850467e+03
 4.8165398e+00   6.3559783e+03
 4.8212199e+00   6.3995443e+03
 4.8259001e+00   6.4027321e+03
 4.8305802e+00   6.4052001e+03
 4.8352599e+00   6.4448956e+03
 4.8399401e+00   6.5135372e+03
 4.8446202e+00   6.5950889e+03
 4.8492999e+00   6.7141555e+03
 4.8539801e+00   6.8860138e+03
 4.8586602e+00   7.1604821e+03
 4.8633399e+00   7.5224046e+03
 4.8680201e+00   8.0653268e+03
 4.8727002e+00   8.7705111e+03
 4.8773799e+00   9.6770689e+03
 4.8820601e+00   1.0736643e+04
 4.8867402e+00   1.1795518e+04
 4.8914199e+00   1.2719827e+04
 4.8961000e+00   1.3350639e+04
 4.9007802e+00   1.3438384e+04
 4.9054599e+00   1.3073011e+04
 4.9101400e+00   1.2322851e+04
 4.9148202e+00   1.1289346e+04
 4.9194999e+00   1.0219131e+04
 4.9241800e+00   9.1899080e+03
 4.9288602e+00   8.3923450e+03
 4.9335399e+00   7.7525287e+03
 4.9382200e+00   7.2784971e+03
 4.9429002e+00   6.9151406e+03
 4.9475799e+00   6.7165319e+03
 4.9522600e+00   6.5280240e+03
 4.9569402e+00   6.4262711e+03
 4.9616199e+00   6.3276053e+03
 4.9663000e+00   6.3022680e+03
 4.9709802e+00   6.2210210e+03
 4.9756598e+00   6.1924305e+03
 4.9803400e+00   6.1686686e+03
 4.9850202e+00   6.1593822e+03
 4.9896998e+00   6.1231107e+03
 4.9943800e+00   6.1192189e+03
 4.9990602e+00   6.1034796e+03
 5.0037398e+00   6.0963733e+03
 5.0084200e+00   6.0802078e+03
 5.0131001e+00   6.0585198e+03
 5.0177798e+00   6.0671140e+03
 5.0224600e+00   6.0612549e+03
 5.0271401e+00   6.0411006e+03
 5.0318198e+00   6.0456501e+03
 5.0365000e+00   6.0654789e+03
 5.0411801e+00   6.0386310e+03
 5.0458598e+00   6.0625282e+03
 5.0505400e+00   6.0599193e+03
 5.0552201e+00   6.0926756e+03
 5.0598998e+00   6.0986788e+03
 5.0645800e+00   6.1376079e+03
 5.0692601e+00   6.1848175e+03
 5.0739398e+00   6.2523252e+03
 5.0786200e+00   6.3641543e+03
 5.0833001e+00   6.5123343e+03
 5.0879798e+00   6.6411136e+03
 5.0926600e+00   7.0463065e+03
 5.0973401e+00   7.3125309e+03
 5.1020198e+00   7.7618268e+03
 5.1066999e+00   8.9223690e+03
 5.1113801e+00   9.8289341e+03
 5.1160598e+00   1.1945229e+04
 5.1207399e+00   1.5957368e+04
 5.1254201e+00   1.9533412e+04
 5.1300998e+00   2.8620399e+04
 5.1347799e+00   3.7387307e+04
 5.1394601e+00   4.2032648e+04
 5.1441398e+00   5.0168760e+04
 5.1488199e+00   4.6721418e+04
 5.1535001e+00   4.1284015e+04
 5.1581802e+00   3.6102427e+04
 5.1628599e+00   2.6072754e+04
 5.1675401e+00   1.9354892e+04
 5.1722202e+00   1.4743309e+04
 5.1768999e+00   1.0813572e+04
 5.1815801e+00   9.2756411e+03
 5.1862602e+00   7.8932712e+03
 5.1909399e+00   7.1498525e+03
 5.1956201e+00   6.9109489e+03
 5.2003002e+00   6.5600069e+03
 5.2049799e+00   6.3829619e+03
 5.2096601e+00   6.2944703e+03
 5.2143402e+00   6.1820371e+03
 5.2190199e+00   6.1435071e+03
 5.2237000e+00   6.0603393e+03
 5.2283802e+00   6.0104487e+03
 5.2330599e+00   5.9805436e+03
 5.2377400e+00   5.9669199e+03
 5.2424202e+00   5.9096530e+03
 5.2470999e+00   5.8783799e+03
 5.2517800e+00   5.8817506e+03
 5.2564602e+00   5.8495717e+03
 5.2611399e+00   5.8532553e+03
 5.2658200e+00   5.8359068e+03
 5.2705002e+00   5.8238051e+03
 5.2751799e+00   5.8053534e+03
 5.2798600e+00   5.7999429e+03
 5.2845402e+00   5.7827501e+03
 5.2892199e+00   5.7846322e+03
 5.2939000e+00   5.7833856e+03
 5.2985802e+00   5.7684415e+03
 5.3032598e+00   5.7875856e+03
 5.3079400e+00   5.7520520e+03
 5.3126202e+00   5.7608934e+03
 5.3172998e+00   5.7813430e+03
 5.3219800e+00   5.7344283e+03
 5.3266602e+00   5.7538332e+03
 5.3313398e+00   5.7300221e+03
 5.3360200e+00   5.7184254e+03
 5.3407001e+00   5.7444383e+03
 5.3453798e+00   5.7006821e+03
 5.3500600e+00   5.7126296e+03
 5.3547401e+00   5.7331120e+03
 5.3594198e+00   5.6976214e+03
 5.3641000e+00   5.7263053e+03
 5.3687801e+00   5.7194148e+03
 5.3734598e+00   5.6995111e+03
 5.3781400e+00   5.7390589e+03
 5.3828201e+00   5.7068046e+03
 5.3874998e+00   5.7153867e+03
 5.3921800e+00   5.7449783e+03
 5.3968601e+00   5.7239682e+03
 5.4015398e+00   5.7410403e+03
 5.4062200e+00   5.7779680e+03
 5.4109001e+00   5.7456993e+03
 5.4155798e+00   5.7832986e+03
 5.4202600e+00   5.7975734e+03
 5.4249401e+00   5.7848767e+03
 5.4296198e+00   5.8459208e+03
 5.4342999e+00   5.8362113e+03
 5.4389801e+00   5.8609550e+03
 5.4436598e+00   5.9044600e+03
 5.4483399e+00   5.9067342e+03
 5.4530201e+00   5.9997957e+03
 5.4576998e+00   6.0366173e+03
 5.4623799e+00   6.0842803e+03
 5.4670601e+00   6.1936005e+03
 5.4717398e+00   6.2782761e+03
 5.4764199e+00   6.4027424e+03
 5.4811001e+00   6.5877374e+03
 5.4857798e+00   6.8012457e+03
 5.4904599e+00   7.1118927e+03
 5.4951401e+00   7.5046086e+03
 5.4998202e+00   8.0371968e+03
 5.5044999e+00   8.8447146e+03
 5.5091801e+00   9.8960173e+03
 5.5138602e+00   1.1353566e+04
 5.5185399e+00   1.3296869e+04
 5.5232201e+00   1.5807967e+04
 5.5279002e+00   1.8779303e+04
 5.5325799e+00   2.2131996e+04
 5.5372601e+00   2.5332713e+04
 5.5419402e+00   2.8098326e+04
 5.5466199e+00   2.9689555e+04
 5.5513000e+00   2.9869858e+04
 5.5559802e+00   2.8727287e+04
 5.5606599e+00   2.6296434e+04
 5.5653400e+00   2.3207206e+04
 5.5700202e+00   1.9932071e+04
 5.5746999e+00   1.6892941e+04
 5.5793800e+00   1.4310853e+04
 5.5840602e+00   1.2314085e+04
 5.5887399e+00   1.0720420e+04
 5.5934200e+00   9.7094125e+03
 5.5981002e+00   9.7395926e+03
 5.6027799e+00   9.2801363e+03
 5.6074600e+00   8.4112170e+03
 5.6121402e+00   7.4625899e+03
 5.6168199e+00   6.9382776e+03
 5.6215000e+00   6.6740834e+03
 5.6261802e+00   6.4479111e+03
 5.6308599e+00   6.3121506e+03
 5.6355400e+00   6.1742497e+03
 5.6402202e+00   6.0644308e+03
 5.6448998e+00   6.0251489e+03
 5.6495800e+00   5.9443576e+03
 5.6542602e+00   5.9071251e+03
 5.6589398e+00   5.8854646e+03
 5.6636200e+00   5.8355989e+03
 5.6683002e+00   5.8435197e+03
 5.6729798e+00   5.7834164e+03
 5.6776600e+00   5.7620060e+03
 5.6823401e+00   5.7699454e+03
 5.6870198e+00   5.7395420e+03
 5.6917000e+00   5.6959942e+03
 5.6963801e+00   5.7259842e+03
 5.7010598e+00   5.6939929e+03
 5.7057400e+00   5.6913989e+03
 5.7104201e+00   5.7004004e+03
 5.7150998e+00   5.6555841e+03
 5.7197800e+00   5.6938685e+03
 5.7244601e+00   5.6699338e+03
 5.7291398e+00   5.6664284e+03
 5.7338200e+00   5.6917636e+03
 5.7385001e+00   5.6901632e+03
 5.7431798e+00   5.6899727e+03
 5.7478600e+00   5.7114624e+03
 5.7525401e+00   5.6889207e+03
 5.7572198e+00   5.7302307e+03
 5.7618999e+00   5.7105855e+03
 5.7665801e+00   5.6960539e+03
 5.7712598e+00   5.7210685e+03
 5.7759399e+00   5.6926619e+03
 5.7806201e+00   5.7022742e+03
 5.7852998e+00   5.6989981e+03
 5.7899799e+00   5.6676090e+03
 5.7946601e+00   5.6842965e+03
 5.7993398e+00   5.6783885e+03
 5.8040199e+00   5.6534865e+03
 5.8087001e+00   5.6870086e+03
 5.8133798e+00   5.6426739e+03
 5.8180599e+00   5.6333887e+03
 5.8227401e+00   5.6496787e+03
 5.8274202e+00   5.6223636e+03
 5.8320999e+00   5.6182115e+03
 5.8367801e+00   5.6396435e+03
 5.8414602e+00   5.6134650e+03
 5.8461399e+00   5.6510855e+03
 5.8508201e+00   5.6230723e+03
 5.8555002e+00   5.6286277e+03
 5.8601799e+00   5.6683950e+03
 5.8648601e+00   5.6657434e+03
 5.8695402e+00   5.6758020e+03
 5.8742199e+00   5.6951463e+03
 5.8789001e+00   5.6919937e+03
 5.8835802e+00   5.7408640e+03
 5.8882599e+00   5.7750679e+03
 5.8929400e+00   5.7837302e+03
 5.8976202e+00   5.9027434e+03
 5.9022999e+00   6.0166494e+03
 5.9069800e+00   6.2341270e+03
 5.9116602e+00   6.5462701e+03
 5.9163399e+00   6.9829053e+03
 5.9210200e+00   7.6948915e+03
 5.9257002e+00   8.7587867e+03
 5.9303799e+00   1.0137524e+04
 5.9350600e+00   1.1444186e+04
 5.9397402e+00   1.2160557e+04
 5.9444199e+00   1.2264217e+04
 5.9491000e+00   1.1917922e+04
 5.9537802e+00   1.0948796e+04
 5.9584599e+00   9.7792750e+03
 5.9631400e+00   8.5456316e+03
 5.9678202e+00   7.7203703e+03
 5.9724998e+00   7.0911285e+03
 5.9771800e+00   6.7851798e+03
 5.9818602e+00   6.6045833e+03
 5.9865398e+00   6.5304854e+03
 5.9912200e+00   6.4377677e+03
 5.9959002e+00   6.3561098e+03
 6.0005798e+00   6.2946323e+03
 6.0052600e+00   6.1853431e+03
 6.0099401e+00   6.1124951e+03
 6.0146198e+00   6.0101196e+03
 6.0193000e+00   5.9469635e+03
 6.0239801e+00   5.9018136e+03
 6.0286598e+00   5.8236303e+03
 6.0333400e+00   5.8136644e+03
 6.0380201e+00   5.7844953e+03
 6.0426998e+00   5.7522252e+03
 6.0473800e+00   5.7425551e+03
 6.0520601e+00   5.7263202e+03
 6.0567398e+00   5.6907806e+03
 6.0614200e+00   5.7205146e+03
 6.0661001e+00   5.6851030e+03
 6.0707798e+00   5.6743429e+03
 6.0754600e+00   5.6956756e+03
 6.0801401e+00   5.6878053e+03
 6.0848198e+00   5.6577720e+03
 6.0895000e+00   5.7017003e+03
 6.0941801e+00   5.6661633e+03
 6.0988598e+00   5.6792459e+03
 6.1035399e+00   5.6736586e+03
 6.1082201e+00   5.6561012e+03
 6.1128998e+00   5.6808144e+03
 6.1175799e+00   5.6713870e+03
 6.1222601e+00   5.6779598e+03
 6.1269398e+00   5.6683446e+03
 6.1316199e+00   5.6800951e+03
 6.1363001e+00   5.6759063e+03
 6.1409798e+00   5.6872508e+03
 6.1456599e+00   5.6631987e+03
 6.1503401e+00   5.7014003e+03
 6.1550202e+00   5.6784824e+03
 6.1596999e+00   5.6914841e+03
 6.1643801e+00   5.6928785e+03
 6.1690602e+00   5.7056445e+03
 6.1737399e+00   5.6990754e+03
 6.1784201e+00   5.7159402e+03
 6.1831002e+00   5.6981925e+03
 6.1877799e+00   5.7331676e+03
 6.1924601e+00   5.7079915e+03
 6.1971402e+00   5.7095646e+03
 6.2018199e+00   5.7341445e+03
 6.2065001e+00   5.7269566e+03
 6.2111802e+00   5.7334833e+03
 6.2158599e+00   5.7521899e+03
 6.2205400e+00   5.7282346e+03
 6.2252202e+00   5.7430082e+03
 6.2298999e+00   5.7595261e+03
 6.2345800e+00   5.7219297e+03
 6.2392602e+00   5.7640886e+03
 6.2439399e+00   5.7548884e+03
 6.2486200e+00   5.7581720e+03
 6.2533002e+00   5.7566202e+03
 6.2579799e+00   5.7550585e+03
 6.2626600e+00   5.7683861e+03
 6.2673402e+00   5.7766628e+03
 6.2720199e+00   5.7617923e+03
 6.2767000e+00   5.7997711e+03
 6.2813802e+00   5.7872418e+03
 6.2860599e+00   5.7869464e+03
 6.2907400e+00   5.7899082e+03
 6.2954202e+00   5.8008929e+03
 6.3000998e+00   5.7956905e+03
 6.3047800e+00   5.8251459e+03
 6.3094602e+00   5.7986465e+03
 6.3141398e+00   5.8246627e+03
 6.3188200e+00   5.8258080e+03
 6.3235002e+00   5.8213268e+03
 6.3281798e+00   5.8563969e+03
 6.3328600e+00   5.8451051e+03
 6.3375401e+00   5.8600818e+03
 6.3422198e+00   5.8635886e+03
 6.3469000e+00   5.8448841e+03
 6.3515801e+00   5.8663308e+03
 6.3562598e+00   5.8911114e+03
 6.3609400e+00   5.8609911e+03
 6.3656201e+00   5.8945345e+03
 6.3702998e+00   5.8676236e+03
 6.3749800e+00   5.8816304e+03
 6.3796601e+00   5.8683196e+03
 6.3843398e+00   5.8942704e+03
 6.3890200e+00   5.8777543e+03
 6.3937001e+00   5.9111535e+03
 6.3983798e+00   5.8904006e+03
 6.4030600e+00   5.9402846e+03
 6.4077401e+00   5.9283261e+03
 6.4124198e+00   5.9174601e+03
 6.4171000e+00   5.9629909e+03
 6.4217801e+00   5.9401658e+03
 6.4264598e+00   5.9465860e+03
 6.4311399e+00   5.9751016e+03
 6.4358201e+00   5.9797635e+03
 6.4404998e+00   5.9856096e+03
 6.4451799e+00   6.0250829e+03
 6.4498601e+00   5.9799411e+03
 6.4545398e+00   6.0195461e+03
 6.4592199e+00   5.9972718e+03
 6.4639001e+00   6.0523205e+03
 6.4685798e+00   6.0376378e+03
 6.4732599e+00   6.0608437e+03
 6.4779401e+00   6.0596386e+03
 6.4826198e+00   6.1015147e+03
 6.4872999e+00   6.0622548e+03
 6.4919801e+00   6.1407794e+03
 6.4966602e+00   6.1221400e+03
 6.5013399e+00   6.1256527e+03
 6.5060201e+00   6.1665532e+03
 6.5107002e+00   6.1564161e+03
 6.5153799e+00   6.1992713e+03
 6.5200601e+00   6.1926602e+03
 6.5247402e+00   6.2337032e+03
 6.5294199e+00   6.1917482e+03
 6.5341001e+00   6.2518558e+03
 6.5387802e+00   6.2101584e+03
 6.5434599e+00   6.2828487e+03
 6.5481400e+00   6.2439344e+03
 6.5528202e+00   6.3425511e+03
 6.5574999e+00   6.2768274e+03
 6.5621800e+00   6.3242216e+03
 6.5668602e+00   6.2922357e+03
 6.5715399e+00   6.4056013e+03
 6.5762200e+00   6.3182635e+03
 6.5809002e+00   6.4290832e+03
 6.5855799e+00   6.3634696e+03
 6.5902600e+00   6.4271829e+03
 6.5949402e+00   6.4335931e+03
 6.5996199e+00   6.4718899e+03
 6.6043000e+00   6.5179001e+03
 6.6089802e+00   6.5027037e+03
 6.6136599e+00   6.5264638e+03
 6.6183400e+00   6.5432717e+03
 6.6230202e+00   6.5915928e+03
 6.6276999e+00   6.5620914e+03
 6.6323800e+00   6.6700335e+03
 6.6370602e+00   6.5990929e+03
 6.6417398e+00   6.7000607e+03
 6.6464200e+00   6.6578186e+03
 6.6511002e+00   6.7508117e+03
 6.6557798e+00   6.7096542e+03
 6.6604600e+00   6.8482031e+03
 6.6651402e+00   6.7548752e+03
 6.6698198e+00   6.8535548e+03
 6.6745000e+00   6.7897735e+03
 6.6791801e+00   6.9071778e+03
 6.6838598e+00   6.9031064e+03
 6.6885400e+00   6.9255588e+03
 6.6932201e+00   6.9922757e+03
 6.6978998e+00   6.9706045e+03
 6.7025800e+00   7.0311266e+03
 6.7072601e+00   7.0123233e+03
 6.7119398e+00   7.0933061e+03
 6.7166200e+00   7.0596243e+03
 6.7213001e+00   7.1788265e+03
 6.7259798e+00   7.0707465e+03
 6.7306600e+00   7.2165140e+03
 6.7353401e+00   7.1912804e+03
 6.7400198e+00   7.3288356e+03
 6.7447000e+00   7.2477018e+03
 6.7493801e+00   7.3299682e+03
 6.7540598e+00   7.2852413e+03
 6.7587399e+00   7.4804399e+03
 6.7634201e+00   7.4303200e+03
 6.7680998e+00   7.4966211e+03
 6.7727799e+00   7.5806229e+03
 6.7774601e+00   7.5032547e+03
 6.7821398e+00   7.6429520e+03
 6.7868199e+00   7.6323173e+03
 6.7915001e+00   7.7429220e+03
 6.7961798e+00   7.6881638e+03
 6.8008599e+00   7.8368885e+03
 6.8055401e+00   7.7259984e+03
 6.8102198e+00   7.9571019e+03
 6.8148999e+00   7.9289874e+03
 6.8195801e+00   8.1658411e+03
 6.8242602e+00   8.0718154e+03
 6.8289399e+00   8.4430255e+03
 6.8336201e+00   8.3061699e+03
 6.8383002e+00   8.8034519e+03
 6.8429799e+00   9.3154230e+03
 6.8476601e+00   1.0137134e+04
 6.8523402e+00   1.1663851e+04
 6.8570199e+00   1.3602520e+04
 6.8617001e+00   1.7268383e+04
 6.8663802e+00   2.2343119e+04
 6.8710599e+00   2.6006708e+04
 6.8757401e+00   2.9571075e+04
 6.8804202e+00   2.5461740e+04
 6.8850999e+00   2.6733103e+04
 6.8897800e+00   1.8310097e+04
 6.8944602e+00   1.7484190e+04
 6.8991399e+00   1.5764270e+04
 6.9038200e+00   1.0864152e+04
 6.9085002e+00   1.0369525e+04
 6.9131799e+00   9.3187937e+03
 6.9178600e+00   9.1392096e+03
 6.9225402e+00   8.7744319e+03
 6.9272199e+00   8.7807170e+03
 6.9319000e+00   8.5315230e+03
 6.9365802e+00   8.4128790e+03
 6.9412599e+00   8.2783397e+03
 6.9459400e+00   8.1797123e+03
 6.9506202e+00   8.3212367e+03
 6.9552999e+00   8.1812286e+03
 6.9599800e+00   8.2516267e+03
 6.9646602e+00   8.0299593e+03
 6.9693398e+00   8.0577143e+03
 6.9740200e+00   8.0776898e+03
 6.9787002e+00   8.2446436e+03
 6.9833798e+00   8.0912779e+03
 6.9880600e+00   8.3651582e+03
 6.9927402e+00   8.2176019e+03
 6.9974198e+00   8.5215075e+03
 7.0021000e+00   8.5699830e+03
 7.0067801e+00   9.0056857e+03
 7.0114598e+00   9.1789933e+03
 7.0161400e+00   9.5195688e+03
 7.0208201e+00   9.7408304e+03
 7.0254998e+00   1.0028211e+04
 7.0301800e+00   1.0166773e+04
 7.0348601e+00   1.0212750e+04
 7.0395398e+00   1.0136958e+04
 7.0442200e+00   9.8064186e+03
 7.0489001e+00   9.6056293e+03
 7.0535798e+00   9.1906290e+03
 7.0582600e+00   8.9435017e+03
 7.0629401e+00   8.6536786e+03
 7.0676198e+00   8.4007346e+03
 7.0723000e+00   8.0992663e+03
 7.0769801e+00   7.9234224e+03
 7.0816598e+00   7.6765631e+03
 7.0863400e+00   7.6927697e+03
 7.0910201e+00   7.4061809e+03
 7.0956998e+00   7.3971528e+03
 7.1003799e+00   7.2704538e+03
 7.1050601e+00   7.2161450e+03
 7.1097398e+00   7.1182868e+03
 7.1144199e+00   7.1285691e+03
 7.1191001e+00   7.0599578e+03
 7.1237798e+00   7.0377824e+03
 7.1284599e+00   7.0054707e+03
 7.1331401e+00   6.9560638e+03
 7.1378198e+00   6.9596081e+03
 7.1424999e+00   6.9231993e+03
 7.1471801e+00   6.9312971e+03
 7.1518602e+00   6.8832111e+03
 7.1565399e+00   6.8803892e+03
 7.1612201e+00   6.8452761e+03
 7.1659002e+00   6.8475205e+03
 7.1705799e+00   6.7718789e+03
 7.1752601e+00   6.8573568e+03
 7.1799402e+00   6.7478675e+03
 7.1846199e+00   6.8027120e+03
 7.1893001e+00   6.7416292e+03
 7.1939802e+00   6.7755986e+03
 7.1986599e+00   6.7266182e+03
 7.2033401e+00   6.7308189e+03
 7.2080202e+00   6.7008403e+03
 7.2126999e+00   6.7232755e+03
 7.2173800e+00   6.6752840e+03
 7.2220602e+00   6.6964421e+03
 7.2267399e+00   6.6834922e+03
 7.2314200e+00   6.6552872e+03
 7.2361002e+00   6.6741654e+03
 7.2407799e+00   6.6444648e+03
 7.2454600e+00   6.6644600e+03
 7.2501402e+00   6.6692328e+03
 7.2548199e+00   6.6837104e+03
 7.2595000e+00   6.6350251e+03
 7.2641802e+00   6.7003595e+03
 7.2688599e+00   6.6265715e+03
 7.2735400e+00   6.6800870e+03
 7.2782202e+00   6.6129427e+03
 7.2828999e+00   6.6512909e+03
 7.2875800e+00   6.6006075e+03
 7.2922602e+00   6.6080072e+03
 7.2969398e+00   6.5908867e+03
 7.3016200e+00   6.5908287e+03
 7.3063002e+00   6.5618323e+03
 7.3109798e+00   6.5683301e+03
 7.3156600e+00   6.5732565e+03
 7.3203402e+00   6.5564409e+03
 7.3250198e+00   6.5794157e+03
 7.3297000e+00   6.5394977e+03
 7.3343801e+00   6.5664108e+03
 7.3390598e+00   6.5598885e+03
 7.3437400e+00   6.5754900e+03
 7.3484201e+00   6.5518795e+03
 7.3530998e+00   6.5639051e+03
 7.3577800e+00   6.5453587e+03
 7.3624601e+00   6.5506119e+03
 7.3671398e+00   6.5117722e+03
 7.3718200e+00   6.5316562e+03
 7.3765001e+00   6.5037047e+03
 7.3811798e+00   6.4900420e+03
 7.3858600e+00   6.4758200e+03
 7.3905401e+00   6.4581754e+03
 7.3952198e+00   6.4349540e+03
 7.3999000e+00   6.4383366e+03
 7.4045801e+00   6.4275074e+03
 7.4092598e+00   6.4003950e+03
 7.4139400e+00   6.4095936e+03
 7.4186201e+00   6.3776259e+03
 7.4232998e+00   6.3858538e+03
 7.4279799e+00   6.3631850e+03
 7.4326601e+00   6.3669329e+03
 7.4373398e+00   6.3627402e+03
 7.4420199e+00   6.3675320e+03
 7.4467001e+00   6.3481838e+03
 7.4513798e+00   6.3708392e+03
 7.4560599e+00   6.3603396e+03
 7.4607401e+00   6.3567663e+03
 7.4654198e+00   6.3639097e+03
 7.4700999e+00   6.3504732e+03
 7.4747801e+00   6.3644588e+03
 7.4794598e+00   6.3467071e+03
 7.4841399e+00   6.3794672e+03
 7.4888201e+00   6.3634821e+03
 7.4935002e+00   6.3672906e+03
 7.4981799e+00   6.3663714e+03
 7.5028601e+00   6.3968636e+03
 7.5075402e+00   6.3998749e+03
 7.5122199e+00   6.4336723e+03
 7.5169001e+00   6.4400579e+03
 7.5215802e+00   6.4658211e+03
 7.5262599e+00   6.4950956e+03
 7.5309401e+00   6.5206248e+03
 7.5356202e+00   6.5715466e+03
 7.5402999e+00   6.6190892e+03
 7.5449800e+00   6.7081178e+03
 7.5496602e+00   6.7808028e+03
 7.5543399e+00   6.9054661e+03
 7.5590200e+00   7.0566300e+03
 7.5637002e+00   7.2779859e+03
 7.5683799e+00   7.5056218e+03
 7.5730600e+00   7.8418195e+03
 7.5777402e+00   8.2395851e+03
 7.5824199e+00   8.7664329e+03
 7.5871000e+00   9.3566453e+03
 7.5917802e+00   1.0044269e+04
 7.5964599e+00   1.0745630e+04
 7.6011400e+00   1.1412531e+04
 7.6058202e+00   1.1939139e+04
 7.6104999e+00   1.2261797e+04
 7.6151800e+00   1.2324233e+04
 7.6198602e+00   1.2062453e+04
 7.6245399e+00   1.1664198e+04
 7.6292200e+00   1.0987760e+04
 7.6339002e+00   1.0315777e+04
 7.6385798e+00   9.5804949e+03
 7.6432600e+00   8.9861375e+03
 7.6479402e+00   8.4041009e+03
 7.6526198e+00   7.9898038e+03
 7.6573000e+00   7.5903046e+03
 7.6619802e+00   7.3260807e+03
 7.6666598e+00   7.0786665e+03
 7.6713400e+00   6.9602108e+03
 7.6760201e+00   6.7808178e+03
 7.6806998e+00   6.7179911e+03
 7.6853800e+00   6.6093130e+03
 7.6900601e+00   6.5673237e+03
 7.6947398e+00   6.5094415e+03
 7.6994200e+00   6.4708513e+03
 7.7041001e+00   6.4612318e+03
 7.7087798e+00   6.4247229e+03
 7.7134600e+00   6.4144295e+03
 7.7181401e+00   6.3634467e+03
 7.7228198e+00   6.3996044e+03
 7.7275000e+00   6.3566446e+03
 7.7321801e+00   6.3609880e+03
 7.7368598e+00   6.3172336e+03
 7.7415400e+00   6.3671752e+03
 7.7462201e+00   6.2922335e+03
 7.7508998e+00   6.3527700e+03
 7.7555799e+00   6.2899083e+03
 7.7602601e+00   6.3567906e+03
 7.7649398e+00   6.2745765e+03
 7.7696199e+00   6.3367228e+03
 7.7743001e+00   6.3116418e+03
 7.7789798e+00   6.3256908e+03
 7.7836599e+00   6.3402582e+03
 7.7883401e+00   6.3026203e+03
 7.7930198e+00   6.3453546e+03
 7.7976999e+00   6.3071052e+03
 7.8023801e+00   6.3513516e+03
 7.8070598e+00   6.3429064e+03
 7.8117399e+00   6.3635443e+03
 7.8164201e+00   6.3203707e+03
 7.8211002e+00   6.3944421e+03
 7.8257799e+00   6.3166294e+03
 7.8304601e+00   6.4393138e+03
 7.8351402e+00   6.4019753e+03
 7.8398199e+00   6.4538955e+03
 7.8445001e+00   6.3614184e+03
 7.8491802e+00   6.4617399e+03
 7.8538599e+00   6.3869724e+03
 7.8585401e+00   6.5858851e+03
 7.8632202e+00   6.4624164e+03
 7.8678999e+00   6.5421600e+03
 7.8725801e+00   6.5322012e+03
 7.8772602e+00   6.5924580e+03
 7.8819399e+00   6.6574765e+03
 7.8866200e+00   6.7664274e+03
 7.8913002e+00   6.9218522e+03
 7.8959799e+00   6.9481884e+03
 7.9006600e+00   7.2111278e+03
 7.9053402e+00   7.3126484e+03
 7.9100199e+00   7.9925219e+03
 7.9147000e+00   1.1155092e+04
 7.9193802e+00   1.1227066e+04
 7.9240599e+00   1.2601177e+04
 7.9287400e+00   1.5423191e+04
 7.9334202e+00   1.4926554e+04
 7.9380999e+00   2.4102668e+04
 7.9427800e+00   2.1154783e+04
 7.9474602e+00   2.6975748e+04
 7.9521399e+00   1.4139353e+04
 7.9568200e+00   1.7940786e+04
 7.9615002e+00   1.5696756e+04
 7.9661798e+00   1.4408635e+04
 7.9708600e+00   1.4367689e+04
 7.9755402e+00   8.7774008e+03
 7.9802198e+00   8.0855070e+03
 7.9849000e+00   7.5350038e+03
 7.9895802e+00   7.2612575e+03
 7.9942598e+00   7.1957255e+03
 7.9989400e+00   6.8705793e+03
 8.0036201e+00   6.6793515e+03
 8.0082998e+00   6.7235508e+03
 8.0129805e+00   6.6766793e+03
 8.0176601e+00   6.8553681e+03
 8.0223398e+00   6.7494555e+03
 8.0270205e+00   6.9300008e+03
 8.0317001e+00   6.9608175e+03
 8.0363798e+00   7.2961082e+03
 8.0410604e+00   7.5679341e+03
 8.0457401e+00   7.9928864e+03
 8.0504198e+00   8.4735146e+03
 8.0551004e+00   9.0663227e+03
 8.0597801e+00   9.8298262e+03
 8.0644598e+00   1.0543365e+04
 8.0691404e+00   1.1418073e+04
 8.0738201e+00   1.1897558e+04
 8.0784998e+00   1.2325650e+04
 8.0831804e+00   1.2330787e+04
 8.0878601e+00   1.2185979e+04
 8.0925398e+00   1.1602995e+04
 8.0972204e+00   1.1002312e+04
 8.1019001e+00   1.0130651e+04
 8.1065798e+00   9.4031990e+03
 8.1112604e+00   8.6152330e+03
 8.1159401e+00   8.0706938e+03
 8.1206198e+00   7.5202905e+03
 8.1253004e+00   7.1530059e+03
 8.1299801e+00   6.8498461e+03
 8.1346598e+00   6.6037717e+03
 8.1393404e+00   6.4273843e+03
 8.1440201e+00   6.2704518e+03
 8.1486998e+00   6.2138258e+03
 8.1533804e+00   6.0596018e+03
 8.1580601e+00   6.0528571e+03
 8.1627398e+00   5.9276718e+03
 8.1674204e+00   5.9482179e+03
 8.1721001e+00   5.8336295e+03
 8.1767797e+00   5.8704223e+03
 8.1814604e+00   5.7754718e+03
 8.1861401e+00   5.8121420e+03
 8.1908197e+00   5.7191801e+03
 8.1955004e+00   5.7421199e+03
 8.2001801e+00   5.7005886e+03
 8.2048597e+00   5.6916437e+03
 8.2095404e+00   5.6854522e+03
 8.2142200e+00   5.6617907e+03
 8.2188997e+00   5.6683341e+03
 8.2235804e+00   5.6309704e+03
 8.2282600e+00   5.6486228e+03
 8.2329397e+00   5.6246014e+03
 8.2376204e+00   5.6316277e+03
 8.2423000e+00   5.6021671e+03
 8.2469797e+00   5.6168899e+03
 8.2516603e+00   5.5655887e+03
 8.2563400e+00   5.5738953e+03
 8.2610197e+00   5.5441354e+03
 8.2657003e+00   5.5514765e+03
 8.2703800e+00   5.5205729e+03
 8.2750597e+00   5.5395597e+03
 8.2797403e+00   5.5085240e+03
 8.2844200e+00   5.4957629e+03
 8.2890997e+00   5.4892561e+03
 8.2937803e+00   5.4731725e+03
 8.2984600e+00   5.4914825e+03
 8.3031397e+00   5.4843592e+03
 8.3078203e+00   5.5105200e+03
 8.3125000e+00   5.4844195e+03
 8.3171797e+00   5.5117990e+03
 8.3218603e+00   5.5049075e+03
 8.3265400e+00   5.5472451e+03
 8.3312197e+00   5.5714895e+03
 8.3359003e+00   5.6209783e+03
 8.3405800e+00   5.6526344e+03
 8.3452597e+00   5.7693464e+03
 8.3499403e+00   5.8576575e+03
 8.3546200e+00   6.0288707e+03
 8.3592997e+00   6.2051188e+03
 8.3639803e+00   6.4563433e+03
 8.3686600e+00   6.7567936e+03
 8.3733397e+00   7.1624996e+03
 8.3780203e+00   7.6104736e+03
 8.3827000e+00   8.2379274e+03
 8.3873796e+00   8.9603040e+03
 8.3920603e+00   9.8591573e+03
 8.3967400e+00   1.0812071e+04
 8.4014196e+00   1.1502769e+04
 8.4061003e+00   1.2109831e+04
 8.4107800e+00   1.1762003e+04
 8.4154596e+00   1.0945846e+04
 8.4201403e+00   1.0033758e+04
 8.4248199e+00   8.7829851e+03
 8.4294996e+00   7.7240749e+03
 8.4341803e+00   6.8842869e+03
 8.4388599e+00   6.3353095e+03
 8.4435396e+00   5.9866664e+03
 8.4482203e+00   5.7184514e+03
 8.4528999e+00   5.5758691e+03
 8.4575796e+00   5.4754636e+03
 8.4622602e+00   5.3964901e+03
 8.4669399e+00   5.3596488e+03
 8.4716196e+00   5.3058061e+03
 8.4763002e+00   5.2865602e+03
 8.4809799e+00   5.2556859e+03
 8.4856596e+00   5.2424265e+03
 8.4903402e+00   5.2096379e+03
 8.4950199e+00   5.2172138e+03
 8.4996996e+00   5.1969381e+03
 8.5043802e+00   5.1946759e+03
 8.5090599e+00   5.1598030e+03
 8.5137396e+00   5.1710723e+03
 8.5184202e+00   5.1434197e+03
 8.5230999e+00   5.1549219e+03
 8.5277796e+00   5.1348144e+03
 8.5324602e+00   5.1412919e+03
 8.5371399e+00   5.1333596e+03
 8.5418196e+00   5.1227453e+03
 8.5465002e+00   5.1153717e+03
 8.5511799e+00   5.1205564e+03
 8.5558596e+00   5.1209942e+03
 8.5605402e+00   5.0888109e+03
 8.5652199e+00   5.0982091e+03
 8.5698996e+00   5.0698444e+03
 8.5745802e+00   5.0983686e+03
 8.5792599e+00   5.0579554e+03
 8.5839396e+00   5.0774377e+03
 8.5886202e+00   5.0669245e+03
 8.5932999e+00   5.0695434e+03
 8.5979795e+00   5.0549838e+03
 8.6026602e+00   5.0579150e+03
 8.6073399e+00   5.0489231e+03
 8.6120195e+00   5.0551662e+03
 8.6167002e+00   5.0440404e+03
 8.6213799e+00   5.0310812e+03
 8.6260595e+00   5.0368184e+03
 8.6307402e+00   5.0282181e+03
 8.6354198e+00   5.0339537e+03
 8.6400995e+00   5.0376247e+03
 8.6447802e+00   5.0286832e+03
 8.6494598e+00   5.0155474e+03
 8.6541405e+00   5.0233856e+03
 8.6588202e+00   5.0166497e+03
 8.6634998e+00   5.0228271e+03
 8.6681805e+00   5.0152905e+03
 8.6728601e+00   5.0079285e+03
 8.6775398e+00   5.0006402e+03
 8.6822205e+00   4.9927323e+03
 8.6869001e+00   5.0040849e+03
 8.6915798e+00   4.9948298e+03
 8.6962605e+00   5.0069858e+03
 8.7009401e+00   4.9948878e+03
 8.7056198e+00   4.9964178e+03
 8.7103004e+00   4.9955325e+03
 8.7149801e+00   4.9974945e+03
 8.7196598e+00   4.9983800e+03
 8.7243404e+00   4.9990429e+03
 8.7290201e+00   4.9988732e+03
 8.7336998e+00   4.9939940e+03
 8.7383804e+00   4.9896727e+03
 8.7430601e+00   5.0065896e+03
 8.7477398e+00   5.0074897e+03
 8.7524204e+00   5.0079912e+03
 8.7571001e+00   5.0216327e+03
 8.7617798e+00   5.0205704e+03
 8.7664604e+00   5.0341802e+03
 8.7711401e+00   5.0463752e+03
 8.7758198e+00   5.0478400e+03
 8.7805004e+00   5.0866148e+03
 8.7851801e+00   5.1050569e+03
 8.7898598e+00   5.1392823e+03
 8.7945404e+00   5.1963795e+03
 8.7992201e+00   5.2226391e+03
 8.8038998e+00   5.2948816e+03
 8.8085804e+00   5.3706345e+03
 8.8132601e+00   5.4720007e+03
 8.8179398e+00   5.5965623e+03
 8.8226204e+00   5.7532958e+03
 8.8273001e+00   5.9306377e+03
 8.8319798e+00   6.1587138e+03
 8.8366604e+00   6.3602783e+03
 8.8413401e+00   6.6633345e+03
 8.8460197e+00   6.9083381e+03
 8.8507004e+00   7.3309757e+03
 8.8553801e+00   7.5425082e+03
 8.8600597e+00   7.8948601e+03
 8.8647404e+00   7.7090203e+03
 8.8694201e+00   8.4239751e+03
 8.8740997e+00   7.8962617e+03
 8.8787804e+00   7.0084278e+03
 8.8834600e+00   7.2809755e+03
 8.8881397e+00   6.2304755e+03
 8.8928204e+00   5.9202261e+03
 8.8975000e+00   5.6518596e+03
 8.9021797e+00   5.4124704e+03
 8.9068604e+00   5.2966519e+03
 8.9115400e+00   5.2178193e+03
 8.9162197e+00   5.1354669e+03
 8.9209003e+00   5.1020282e+03
 8.9255800e+00   5.0850995e+03
 8.9302597e+00   5.0533136e+03
 8.9349403e+00   5.0219496e+03
 8.9396200e+00   5.0115834e+03
 8.9442997e+00   5.0169499e+03
 8.9489803e+00   4.9977510e+03
 8.9536600e+00   5.0041510e+03
 8.9583397e+00   4.9915907e+03
 8.9630203e+00   5.0044550e+03
 8.9677000e+00   5.0090952e+03
 8.9723797e+00   5.0443923e+03
 8.9770603e+00   5.0576720e+03
 8.9817400e+00   5.0947908e+03
 8.9864197e+00   5.1363498e+03
 8.9911003e+00   5.1810078e+03
 8.9957800e+00   5.2465482e+03
 9.0004597e+00   5.3272943e+03
 9.0051403e+00   5.4311339e+03
 9.0098200e+00   5.5267777e+03
 9.0144997e+00   5.6177021e+03
 9.0191803e+00   5.6724218e+03
 9.0238600e+00   5.7239218e+03
 9.0285397e+00   5.7318891e+03
 9.0332203e+00   5.7051682e+03
 9.0379000e+00   5.6403763e+03
 9.0425797e+00   5.5537128e+03
 9.0472603e+00   5.4446724e+03
 9.0519400e+00   5.3466667e+03
 9.0566196e+00   5.2372765e+03
 9.0613003e+00   5.1694339e+03
 9.0659800e+00   5.1030996e+03
 9.0706596e+00   5.0344704e+03
 9.0753403e+00   4.9962828e+03
 9.0800200e+00   4.9673561e+03
 9.0846996e+00   4.9302142e+03
 9.0893803e+00   4.9163035e+03
 9.0940599e+00   4.9070546e+03
 9.0987396e+00   4.8892957e+03
 9.1034203e+00   4.8787368e+03
 9.1080999e+00   4.8805000e+03
 9.1127796e+00   4.8660404e+03
 9.1174603e+00   4.8673113e+03
 9.1221399e+00   4.8658504e+03
 9.1268196e+00   4.8658078e+03
 9.1315002e+00   4.8636386e+03
 9.1361799e+00   4.8498076e+03
 9.1408596e+00   4.8615484e+03
 9.1455402e+00   4.8594200e+03
 9.1502199e+00   4.8602998e+03
 9.1548996e+00   4.8701989e+03
 9.1595802e+00   4.8771516e+03
 9.1642599e+00   4.8889243e+03
 9.1689396e+00   4.9019113e+03
 9.1736202e+00   4.9073426e+03
 9.1782999e+00   4.9239490e+03
 9.1829796e+00   4.9534361e+03
 9.1876602e+00   4.9671482e+03
 9.1923399e+00   5.0089932e+03
 9.1970196e+00   5.0361827e+03
 9.2017002e+00   5.1039417e+03
 9.2063799e+00   5.1651991e+03
 9.2110596e+00   5.2657421e+03
 9.2157402e+00   5.3901242e+03
 9.2204199e+00   5.5260044e+03
 9.2250996e+00   5.6992958e+03
 9.2297802e+00   5.9132664e+03
 9.2344599e+00   6.1330133e+03
 9.2391396e+00   6.4006057e+03
 9.2438202e+00   6.6314267e+03
 9.2484999e+00   6.8281699e+03
 9.2531796e+00   7.0008583e+03
 9.2578602e+00   7.0682317e+03
 9.2625399e+00   7.0587407e+03
 9.2672195e+00   6.9603534e+03
 9.2719002e+00   6.7917179e+03
 9.2765799e+00   6.5730163e+03
 9.2812595e+00   6.3304018e+03
 9.2859402e+00   6.0959120e+03
 9.2906199e+00   5.8837696e+03
 9.2952995e+00   5.6837693e+03
 9.2999802e+00   5.5089260e+03
 9.3046598e+00   5.3918056e+03
 9.3093395e+00   5.3035182e+03
 9.3140202e+00   5.2184977e+03
 9.3186998e+00   5.1807429e+03
 9.3233805e+00   5.1493339e+03
 9.3280602e+00   5.1353536e+03
 9.3327398e+00   5.1459846e+03
 9.3374205e+00   5.1509332e+03
 9.3421001e+00   5.1862858e+03
 9.3467798e+00   5.2110254e+03
 9.3514605e+00   5.2498456e+03
 9.3561401e+00   5.2872539e+03
 9.3608198e+00   5.2994524e+03
 9.3655005e+00   5.3216849e+03
 9.3701801e+00   5.3126803e+03
 9.3748598e+00   5.2887781e+03
 9.3795404e+00   5.2636506e+03
 9.3842201e+00   5.2069788e+03
 9.3888998e+00   5.1852360e+03
 9.3935804e+00   5.1601567e+03
 9.3982601e+00   5.1423796e+03
 9.4029398e+00   5.1256354e+03
 9.4076204e+00   5.1475145e+03
 9.4123001e+00   5.1758826e+03
 9.4169798e+00   5.2265295e+03
 9.4216604e+00   5.2972474e+03
 9.4263401e+00   5.3881103e+03
 9.4310198e+00   5.4844094e+03
 9.4357004e+00   5.6018735e+03
 9.4403801e+00   5.7407126e+03
 9.4450598e+00   5.8549244e+03
 9.4497404e+00   5.9700052e+03
 9.4544201e+00   6.0480204e+03
 9.4590998e+00   6.0894772e+03
 9.4637804e+00   6.1298069e+03
 9.4684601e+00   6.1183021e+03
 9.4731398e+00   6.1065481e+03
 9.4778204e+00   6.1030861e+03
 9.4825001e+00   6.0938131e+03
 9.4871798e+00   6.0989749e+03
 9.4918604e+00   6.0946235e+03
 9.4965401e+00   6.0821517e+03
 9.5012197e+00   6.0689313e+03
 9.5059004e+00   6.0078304e+03
 9.5105801e+00   5.9318766e+03
 9.5152597e+00   5.8361087e+03
 9.5199404e+00   5.7123948e+03
 9.5246201e+00   5.5924029e+03
 9.5292997e+00   5.4921558e+03
 9.5339804e+00   5.3697785e+03
 9.5386600e+00   5.3016361e+03
 9.5433397e+00   5.2296003e+03
 9.5480204e+00   5.1459288e+03
 9.5527000e+00   5.1033282e+03
 9.5573797e+00   5.0709989e+03
 9.5620604e+00   5.0317900e+03
 9.5667400e+00   5.0133927e+03
 9.5714197e+00   4.9796761e+03
 9.5761003e+00   4.9709814e+03
 9.5807800e+00   4.9416735e+03
 9.5854597e+00   4.9444613e+03
 9.5901403e+00   4.9272952e+03
 9.5948200e+00   4.9293817e+03
 9.5994997e+00   4.9242245e+03
 9.6041803e+00   4.9227827e+03
 9.6088600e+00   4.9249197e+03
 9.6135397e+00   4.9124309e+03
 9.6182203e+00   4.9150941e+03
 9.6229000e+00   4.9172612e+03
 9.6275797e+00   4.9273871e+03
 9.6322603e+00   4.9182398e+03
 9.6369400e+00   4.9332441e+03
 9.6416197e+00   4.9287145e+03
 9.6463003e+00   4.9407703e+03
 9.6509800e+00   4.9428593e+03
 9.6556597e+00   4.9502034e+03
 9.6603403e+00   4.9655216e+03
 9.6650200e+00   4.9673763e+03
 9.6696997e+00   4.9843888e+03
 9.6743803e+00   5.0144039e+03
 9.6790600e+00   5.0687924e+03
 9.6837397e+00   5.0990678e+03
 9.6884203e+00   5.2377539e+03
 9.6931000e+00   5.5420439e+03
 9.6977797e+00   5.4032439e+03
 9.7024603e+00   6.0448884e+03
 9.7071400e+00   6.3759423e+03
 9.7118196e+00   6.4634203e+03
 9.7165003e+00   6.4631277e+03
 9.7211800e+00   6.7746667e+03
 9.7258596e+00   6.0278323e+03
 9.7305403e+00   5.9798980e+03
 9.7352200e+00   5.5633787e+03
 9.7398996e+00   5.6922029e+03
 9.7445803e+00   5.4062256e+03
 9.7492599e+00   5.4224012e+03
 9.7539396e+00   5.4291941e+03
 9.7586203e+00   5.4802424e+03
 9.7632999e+00   5.5818171e+03
 9.7679796e+00   5.7077151e+03
 9.7726603e+00   5.8782055e+03
 9.7773399e+00   6.0940866e+03
 9.7820196e+00   6.3390004e+03
 9.7867002e+00   6.6133535e+03
 9.7913799e+00   6.8807749e+03
 9.7960596e+00   7.1599891e+03
 9.8007402e+00   7.3785660e+03
 9.8054199e+00   7.5523980e+03
 9.8100996e+00   7.6260794e+03
 9.8147802e+00   7.6322091e+03
 9.8194599e+00   7.5864178e+03
 9.8241396e+00   7.5169947e+03
 9.8288202e+00   7.5215251e+03
 9.8334999e+00   7.6923074e+03
 9.8381796e+00   8.1036177e+03
 9.8428602e+00   8.7905807e+03
 9.8475399e+00   9.9763434e+03
 9.8522196e+00   1.1080375e+04
 9.8569002e+00   1.2496982e+04
 9.8615799e+00   1.2948326e+04
 9.8662596e+00   1.3157226e+04
 9.8709402e+00   1.2235484e+04
 9.8756199e+00   1.1226283e+04
 9.8802996e+00   9.6062186e+03
 9.8849802e+00   8.3366008e+03
 9.8896599e+00   7.2315000e+03
 9.8943396e+00   6.5032245e+03
 9.8990202e+00   5.9803497e+03
 9.9036999e+00   5.6442637e+03
 9.9083796e+00   5.4458550e+03
 9.9130602e+00   5.2842809e+03
 9.9177399e+00   5.2064125e+03
 9.9224195e+00   5.1639739e+03
 9.9271002e+00   5.1238501e+03
 9.9317799e+00   5.0922203e+03
 9.9364595e+00   5.0805762e+03
 9.9411402e+00   5.0628544e+03
 9.9458199e+00   5.0507793e+03
 9.9504995e+00   5.0519450e+03
 9.9551802e+00   5.0295458e+03
 9.9598598e+00   5.0462690e+03
 9.9645395e+00   5.0341751e+03
 9.9692202e+00   5.0434970e+03
 9.9738998e+00   5.0318940e+03
 9.9785805e+00   5.0339509e+03
 9.9832602e+00   5.0344899e+03
 9.9879398e+00   5.0462256e+03
 9.9926205e+00   5.0344997e+03
 9.9973001e+00   5.0445179e+03
 1.0001980e+01   5.0431454e+03
 1.0006660e+01   5.0505378e+03
 1.0011340e+01   5.0384036e+03
 1.0016020e+01   5.0501650e+03
 1.0020700e+01   5.0511870e+03
 1.0025380e+01   5.0580609e+03
 1.0030060e+01   5.0620573e+03
 1.0034740e+01   5.0770623e+03
 1.0039420e+01   5.0884137e+03
 1.0044100e+01   5.1089838e+03
 1.0048780e+01   5.1354677e+03
 1.0053460e+01   5.1368397e+03
 1.0058140e+01   5.1626247e+03
 1.0062820e+01   5.1660433e+03
 1.0067500e+01   5.1777092e+03
 1.0072180e+01   5.1521183e+03
 1.0076860e+01   5.1668149e+03
 1.0081540e+01   5.1307941e+03
 1.0086220e+01   5.1255639e+03
 1.0090900e+01   5.1055684e+03
 1.0095580e+01   5.0852777e+03
 1.0100260e+01   5.0634605e+03
 1.0104940e+01   5.0544466e+03
 1.0109620e+01   5.0442688e+03
 1.0114300e+01   5.0284288e+03
 1.0118980e+01   5.0397235e+03
 1.0123660e+01   5.0104844e+03
 1.0128340e+01   5.0174812e+03
 1.0133020e+01   5.0053914e+03
 1.0137700e+01   5.0088643e+03
 1.0142380e+01   5.0145432e+03
 1.0147060e+01   5.0137299e+03
 1.0151740e+01   5.0001351e+03
 1.0156420e+01   5.0090789e+03
 1.0161100e+01   5.0091224e+03
 1.0165780e+01   5.0058979e+03
 1.0170460e+01   5.0150706e+03
 1.0175140e+01   5.0140794e+03
 1.0179820e+01   5.0123840e+03
 1.0184500e+01   5.0054380e+03
 1.0189180e+01   5.0028534e+03
 1.0193860e+01   5.0198973e+03
 1.0198540e+01   5.0236415e+03
 1.0203220e+01   5.0103869e+03
 1.0207900e+01   5.0293716e+03
 1.0212580e+01   5.0083529e+03
 1.0217260e+01   5.0361421e+03
 1.0221940e+01   5.0249677e+03
 1.0226620e+01   5.0292732e+03
 1.0231300e+01   5.0446654e+03
 1.0235980e+01   5.0530492e+03
 1.0240660e+01   5.0640450e+03
 1.0245340e+01   5.0781443e+03
 1.0250020e+01   5.0871772e+03
 1.0254700e+01   5.1235900e+03
 1.0259380e+01   5.1642009e+03
 1.0264060e+01   5.2346727e+03
 1.0268740e+01   5.3769256e+03
 1.0273420e+01   5.5525973e+03
 1.0278100e+01   5.8518441e+03
 1.0282780e+01   6.2441769e+03
 1.0287460e+01   6.7691340e+03
 1.0292140e+01   7.4382971e+03
 1.0296820e+01   7.9981862e+03
 1.0301500e+01   8.3521614e+03
 1.0306180e+01   8.1976779e+03
 1.0310860e+01   8.1052591e+03
 1.0315540e+01   7.5484678e+03
 1.0320220e+01   6.8377202e+03
 1.0324900e+01   6.3444716e+03
 1.0329580e+01   5.9235212e+03
 1.0334260e+01   5.5977395e+03
 1.0338940e+01   5.3781431e+03
 1.0343620e+01   5.2807338e+03
 1.0348300e+01   5.1885587e+03
 1.0352980e+01   5.1535700e+03
 1.0357660e+01   5.1156143e+03
 1.0362340e+01   5.0835323e+03
 1.0367020e+01   5.1040899e+03
 1.0371700e+01   5.0589856e+03
 1.0376380e+01   5.0720530e+03
 1.0381060e+01   5.0770530e+03
 1.0385740e+01   5.0584300e+03
 1.0390420e+01   5.0805129e+03
 1.0395100e+01   5.0595010e+03
 1.0399780e+01   5.0427765e+03
 1.0404460e+01   5.0872089e+03
 1.0409140e+01   5.0545750e+03
 1.0413820e+01   5.0685057e+03
 1.0418500e+01   5.0827933e+03
 1.0423180e+01   5.0497195e+03
 1.0427860e+01   5.0791351e+03
 1.0432540e+01   5.0564628e+03
 1.0437220e+01   5.0570257e+03
 1.0441900e+01   5.0981403e+03
 1.0446580e+01   5.0792241e+03
 1.0451260e+01   5.0888649e+03
 1.0455940e+01   5.1109857e+03
 1.0460620e+01   5.1263300e+03
 1.0465300e+01   5.1554459e+03
 1.0469980e+01   5.2053803e+03
 1.0474660e+01   5.3585140e+03
 1.0479340e+01   5.4104097e+03
 1.0484020e+01   5.5349892e+03
 1.0488700e+01   5.5674244e+03
 1.0493380e+01   5.8249678e+03
 1.0498060e+01   5.9395428e+03
 1.0502740e+01   5.8115217e+03
 1.0507420e+01   5.8549538e+03
 1.0512100e+01   5.6775072e+03
 1.0516780e+01   5.5558343e+03
 1.0521460e+01   5.4555471e+03
 1.0526140e+01   5.3151820e+03
 1.0530820e+01   5.3139726e+03
 1.0535500e+01   5.2271919e+03
 1.0540180e+01   5.2253867e+03
 1.0544860e+01   5.1681691e+03
 1.0549540e+01   5.1613471e+03
 1.0554220e+01   5.1865482e+03
 1.0558900e+01   5.1293977e+03
 1.0563580e+01   5.1400087e+03
 1.0568260e+01   5.1038501e+03
 1.0572940e+01   5.0612374e+03
 1.0577620e+01   5.0830330e+03
 1.0582300e+01   5.0280848e+03
 1.0586980e+01   5.0260422e+03
 1.0591660e+01   5.0195183e+03
 1.0596340e+01   4.9989479e+03
 1.0601020e+01   4.9922944e+03
 1.0605700e+01   4.9740270e+03
 1.0610380e+01   4.9694698e+03
 1.0615060e+01   4.9740625e+03
 1.0619740e+01   4.9538377e+03
 1.0624420e+01   4.9528714e+03
 1.0629100e+01   4.9676609e+03
 1.0633780e+01   4.9362732e+03
 1.0638460e+01   4.9626347e+03
 1.0643140e+01   4.9452318e+03
 1.0647820e+01   4.9448847e+03
 1.0652500e+01   4.9592360e+03
 1.0657180e+01   4.9662212e+03
 1.0661860e+01   4.9733271e+03
 1.0666540e+01   4.9878496e+03
 1.0671220e+01   4.9912509e+03
 1.0675900e+01   5.0144225e+03
 1.0680580e+01   5.0406626e+03
 1.0685260e+01   5.0659641e+03
 1.0689940e+01   5.1105950e+03
 1.0694620e+01   5.1424653e+03
 1.0699300e+01   5.2093678e+03
 1.0703980e+01   5.2443466e+03
 1.0708660e+01   5.2860771e+03
 1.0713340e+01   5.3255429e+03
 1.0718020e+01   5.3333020e+03
 1.0722700e+01   5.3347112e+03
 1.0727380e+01   5.3413910e+03
 1.0732060e+01   5.3068116e+03
 1.0736740e+01   5.2787150e+03
 1.0741420e+01   5.2115123e+03
 1.0746100e+01   5.1715262e+03
 1.0750780e+01   5.1132162e+03
 1.0755460e+01   5.0663236e+03
 1.0760140e+01   5.0130292e+03
 1.0764820e+01   4.9854372e+03
 1.0769500e+01   4.9467601e+03
 1.0774180e+01   4.9217872e+03
 1.0778860e+01   4.9046478e+03
 1.0783540e+01   4.8796594e+03
 1.0788220e+01   4.8733279e+03
 1.0792900e+01   4.8464835e+03
 1.0797580e+01   4.8546502e+03
 1.0802260e+01   4.8336701e+03
 1.0806940e+01   4.8269456e+03
 1.0811620e+01   4.8302425e+03
 1.0816300e+01   4.8274879e+03
 1.0820980e+01   4.8235878e+03
 1.0825660e+01   4.8206821e+03
 1.0830340e+01   4.8209020e+03
 1.0835020e+01   4.8112038e+03
 1.0839700e+01   4.8237507e+03
 1.0844380e+01   4.8108551e+03
 1.0849060e+01   4.8156737e+03
 1.0853740e+01   4.8016809e+03
 1.0858420e+01   4.7925901e+03
 1.0863100e+01   4.7994466e+03
 1.0867780e+01   4.7839358e+03
 1.0872460e+01   4.7839090e+03
 1.0877140e+01   4.7682217e+03
 1.0881820e+01   4.7697701e+03
 1.0886500e+01   4.7624623e+03
 1.0891180e+01   4.7476328e+03
 1.0895860e+01   4.7458997e+03
 1.0900540e+01   4.7430750e+03
 1.0905220e+01   4.7202180e+03
 1.0909900e+01   4.7244159e+03
 1.0914580e+01   4.7176851e+03
 1.0919260e+01   4.7139470e+03
 1.0923940e+01   4.7157939e+03
 1.0928620e+01   4.7067121e+03
 1.0933300e+01   4.7079811e+03
 1.0937980e+01   4.7034789e+03
 1.0942660e+01   4.6957585e+03
 1.0947340e+01   4.7023459e+03
 1.0952020e+01   4.7069750e+03
 1.0956700e+01   4.6933031e+03
 1.0961380e+01   4.7052578e+03
 1.0966060e+01   4.6906881e+03
 1.0970740e+01   4.6991497e+03
 1.0975420e+01   4.6894711e+03
 1.0980100e+01   4.6884320e+03
 1.0984780e+01   4.6813466e+03
 1.0989460e+01   4.6803279e+03
 1.0994140e+01   4.6858846e+03
 1.0998820e+01   4.6929040e+03
 1.1003500e+01   4.6892924e+03
 1.1008180e+01   4.6892603e+03
 1.1012860e+01   4.7060510e+03
 1.1017540e+01   4.7001974e+03
 1.1022220e+01   4.7134034e+03
 1.1026900e+01   4.7044368e+03
 1.1031580e+01   4.7170484e+03
 1.1036260e+01   4.7372686e+03
 1.1040940e+01   4.7441417e+03
 1.1045620e+01   4.7638831e+03
 1.1050300e+01   4.7978108e+03
 1.1054980e+01   4.8144890e+03
 1.1059660e+01   4.8688977e+03
 1.1064340e+01   4.8940909e+03
 1.1069020e+01   4.9652710e+03
 1.1073700e+01   5.0448291e+03
 1.1078380e+01   5.1259168e+03
 1.1083060e+01   5.2360067e+03
 1.1087740e+01   5.3312548e+03
 1.1092420e+01   5.4482162e+03
 1.1097100e+01   5.5736710e+03
 1.1101780e+01   5.6734547e+03
 1.1106460e+01   5.7373902e+03
 1.1111140e+01   5.7884539e+03
 1.1115820e+01   5.7815438e+03
 1.1120500e+01   5.7635956e+03
 1.1125180e+01   5.6766070e+03
 1.1129860e+01   5.5856259e+03
 1.1134540e+01   5.4677370e+03
 1.1139220e+01   5.3337768e+03
 1.1143900e+01   5.2218806e+03
 1.1148580e+01   5.1298839e+03
 1.1153260e+01   5.0212102e+03
 1.1157940e+01   4.9409404e+03
 1.1162620e+01   4.8705518e+03
 1.1167300e+01   4.8115015e+03
 1.1171980e+01   4.7725807e+03
 1.1176660e+01   4.7252825e+03
 1.1181340e+01   4.7212007e+03
 1.1186020e+01   4.6834856e+03
 1.1190700e+01   4.6579589e+03
 1.1195380e+01   4.6775550e+03
 1.1200060e+01   4.6291006e+03
 1.1204740e+01   4.6328370e+03
 1.1209420e+01   4.7199609e+03
 1.1214100e+01   4.6319494e+03
 1.1218780e+01   4.8756096e+03
 1.1223460e+01   4.6429503e+03
 1.1228140e+01   4.6450988e+03
 1.1232820e+01   4.7785160e+03
 1.1237500e+01   4.6321767e+03
 1.1242180e+01   4.6468377e+03
 1.1246860e+01   4.6402611e+03
 1.1251540e+01   4.6249877e+03
 1.1256220e+01   4.6336639e+03
 1.1260900e+01   4.6229930e+03
 1.1265580e+01   4.6439862e+03
 1.1270260e+01   4.6554765e+03
 1.1274940e+01   4.6551273e+03
 1.1279620e+01   4.6634578e+03
 1.1284300e+01   4.6697761e+03
 1.1288980e+01   4.6711618e+03
 1.1293660e+01   4.6747045e+03
 1.1298340e+01   4.6525115e+03
 1.1303020e+01   4.6509598e+03
 1.1307700e+01   4.6213034e+03
 1.1312380e+01   4.6121884e+03
 1.1317060e+01   4.5856431e+03
 1.1321740e+01   4.5586192e+03
 1.1326420e+01   4.5512196e+03
 1.1331100e+01   4.5287364e+03
 1.1335780e+01   4.5113978e+03
 1.1340460e+01   4.5086193e+03
 1.1345140e+01   4.5039762e+03
 1.1349820e+01   4.4838443e+03
 1.1354500e+01   4.4921413e+03
 1.1359180e+01   4.4722528e+03
 1.1363860e+01   4.4713339e+03
 1.1368540e+01   4.4691355e+03
 1.1373220e+01   4.4566467e+03
 1.1377900e+01   4.4635260e+03
 1.1382580e+01   4.4579667e+03
 1.1387260e+01   4.4598661e+03
 1.1391940e+01   4.4603666e+03
 1.1396620e+01   4.4480483e+03
 1.1401300e+01   4.4613639e+03
 1.1405980e+01   4.4550343e+03
 1.1410660e+01   4.4434540e+03
 1.1415340e+01   4.4582553e+03
 1.1420020e+01   4.4506184e+03
 1.1424700e+01   4.4574097e+03
 1.1429380e+01   4.4609495e+03
 1.1434060e+01   4.4467288e+03
 1.1438740e+01   4.4568895e+03
 1.1443420e+01   4.4633699e+03
 1.1448100e+01   4.4678330e+03
 1.1452780e+01   4.4908354e+03
 1.1457460e+01   4.4796214e+03
 1.1462140e+01   4.5005563e+03
 1.1466820e+01   4.5191570e+03
 1.1471500e+01   4.5343596e+03
 1.1476180e+01   4.5694970e+03
 1.1480860e+01   4.5808678e+03
 1.1485540e+01   4.6225106e+03
 1.1490220e+01   4.6600318e+03
 1.1494900e+01   4.7088707e+03
 1.1499580e+01   4.7755733e+03
 1.1504260e+01   4.8284793e+03
 1.1508940e+01   4.8932346e+03
 1.1513620e+01   4.9629490e+03
 1.1518300e+01   4.9970260e+03
 1.1522980e+01   5.0420239e+03
 1.1527660e+01   5.0641014e+03
 1.1532340e+01   5.0381230e+03
 1.1537020e+01   5.0244597e+03
 1.1541700e+01   4.9794919e+03
 1.1546380e+01   4.9148925e+03
 1.1551060e+01   4.8569473e+03
 1.1555740e+01   4.7731421e+03
 1.1560420e+01   4.7371111e+03
 1.1565100e+01   4.6558980e+03
 1.1569780e+01   4.6031651e+03
 1.1574460e+01   4.5746406e+03
 1.1579140e+01   4.5244953e+03
 1.1583820e+01   4.5007488e+03
 1.1588500e+01   4.4732927e+03
 1.1593180e+01   4.4504095e+03
 1.1597860e+01   4.4414677e+03
 1.1602540e+01   4.4235331e+03
 1.1607220e+01   4.4081083e+03
 1.1611900e+01   4.3975571e+03
 1.1616580e+01   4.3961140e+03
 1.1621260e+01   4.3925056e+03
 1.1625940e+01   4.3833891e+03
 1.1630620e+01   4.3687228e+03
 1.1635300e+01   4.3713870e+03
 1.1639980e+01   4.3576571e+03
 1.1644660e+01   4.3516682e+03
 1.1649340e+01   4.3448439e+03
 1.1654020e+01   4.3412743e+03
 1.1658700e+01   4.3312864e+03
 1.1663380e+01   4.3268598e+03
 1.1668060e+01   4.3122182e+03
 1.1672740e+01   4.3304319e+03
 1.1677420e+01   4.3164166e+03
 1.1682100e+01   4.3107160e+03
 1.1686780e+01   4.3104257e+03
 1.1691460e+01   4.2945738e+03
 1.1696140e+01   4.2984572e+03
 1.1700820e+01   4.2951169e+03
 1.1705500e+01   4.2973565e+03
 1.1710180e+01   4.2866643e+03
 1.1714860e+01   4.2894386e+03
 1.1719540e+01   4.2911771e+03
 1.1724220e+01   4.2888757e+03
 1.1728900e+01   4.2726295e+03
 1.1733580e+01   4.2833389e+03
 1.1738260e+01   4.2797550e+03
 1.1742940e+01   4.2824267e+03
 1.1747620e+01   4.2955701e+03
 1.1752300e+01   4.3018416e+03
 1.1756980e+01   4.2944108e+03
 1.1761660e+01   4.2882883e+03
 1.1766340e+01   4.2693415e+03
 1.1771020e+01   4.2738188e+03
 1.1775700e+01   4.2625842e+03
 1.1780380e+01   4.2550988e+03
 1.1785060e+01   4.2598509e+03
 1.1789740e+01   4.2508021e+03
 1.1794420e+01   4.2608808e+03
 1.1799100e+01   4.2501327e+03
 1.1803780e+01   4.2531486e+03
 1.1808460e+01   4.2530894e+03
 1.1813140e+01   4.2467546e+03
 1.1817820e+01   4.2464094e+03
 1.1822500e+01   4.2481906e+03
 1.1827180e+01   4.2464774e+03
 1.1831860e+01   4.2506486e+03
 1.1836540e+01   4.2476476e+03
 1.1841220e+01   4.2500756e+03
 1.1845900e+01   4.2540810e+03
 1.1850580e+01   4.2542335e+03
 1.1855260e+01   4.2793637e+03
 1.1859940e+01   4.2747382e+03
 1.1864620e+01   4.2864254e+03
 1.1869300e+01   4.3039834e+03
 1.1873980e+01   4.3366842e+03
 1.1878660e+01   4.3914472e+03
 1.1883340e+01   4.4560958e+03
 1.1888020e+01   4.5467835e+03
 1.1892700e+01   4.6774905e+03
 1.1897380e+01   4.7983670e+03
 1.1902060e+01   4.8523044e+03
 1.1906740e+01   4.8715461e+03
 1.1911420e+01   4.8947412e+03
 1.1916100e+01   4.7960034e+03
 1.1920780e+01   4.6621904e+03
 1.1925460e+01   4.6319497e+03
 1.1930140e+01   4.4737733e+03
 1.1934820e+01   4.4212075e+03
 1.1939500e+01   4.3832523e+03
 1.1944180e+01   4.3511562e+03
 1.1948860e+01   4.3494462e+03
 1.1953540e+01   4.3593658e+03
 1.1958220e+01   4.3775984e+03
 1.1962900e+01   4.3917666e+03
 1.1967580e+01   4.4391111e+03
 1.1972260e+01   4.4581076e+03
 1.1976940e+01   4.5068963e+03
 1.1981620e+01   4.5406493e+03
 1.1986300e+01   4.5747720e+03
 1.1990980e+01   4.6064222e+03
 1.1995660e+01   4.6181929e+03
 1.2000340e+01   4.6259262e+03
 1.2005020e+01   4.6200090e+03
 1.2009700e+01   4.5992690e+03
 1.2014380e+01   4.5675672e+03
 1.2019060e+01   4.5334406e+03
 1.2023740e+01   4.4841946e+03
 1.2028420e+01   4.4699759e+03
 1.2033100e+01   4.4288436e+03
 1.2037780e+01   4.4074331e+03
 1.2042460e+01   4.3782412e+03
 1.2047140e+01   4.3672144e+03
 1.2051820e+01   4.3643975e+03
 1.2056500e+01   4.3602904e+03
 1.2061180e+01   4.3716873e+03
 1.2065860e+01   4.3905339e+03
 1.2070540e+01   4.4224344e+03
 1.2075220e+01   4.4501837e+03
 1.2079900e+01   4.5062853e+03
 1.2084580e+01   4.5595040e+03
 1.2089260e+01   4.6364854e+03
 1.2093940e+01   4.6927001e+03
 1.2098620e+01   4.7967374e+03
 1.2103300e+01   4.8999938e+03
 1.2107980e+01   5.0110881e+03
 1.2112660e+01   5.1105374e+03
 1.2117340e+01   5.1987283e+03
 1.2122020e+01   5.2676288e+03
 1.2126700e+01   5.3131674e+03
 1.2131380e+01   5.3040601e+03
 1.2136060e+01   5.2859928e+03
 1.2140740e+01   5.2286730e+03
 1.2145420e+01   5.1404649e+03
 1.2150100e+01   5.0367418e+03
 1.2154780e+01   4.9131269e+03
 1.2159460e+01   4.8166474e+03
 1.2164140e+01   4.7064272e+03
 1.2168820e+01   4.6005153e+03
 1.2173500e+01   4.5277063e+03
 1.2178180e+01   4.4412115e+03
 1.2182860e+01   4.3886462e+03
 1.2187540e+01   4.3350858e+03
 1.2192220e+01   4.2847104e+03
 1.2196900e+01   4.2533927e+03
 1.2201580e+01   4.2223224e+03
 1.2206260e+01   4.1905018e+03
 1.2210940e+01   4.1758560e+03
 1.2215620e+01   4.1466770e+03
 1.2220300e+01   4.1362501e+03
 1.2224980e+01   4.1254829e+03
 1.2229660e+01   4.1126173e+03
 1.2234340e+01   4.1131665e+03
 1.2239020e+01   4.0910851e+03
 1.2243700e+01   4.0910094e+03
 1.2248380e+01   4.0765710e+03
 1.2253060e+01   4.0766630e+03
 1.2257740e+01   4.0602648e+03
 1.2262420e+01   4.0654705e+03
 1.2267100e+01   4.0612778e+03
 1.2271780e+01   4.0538660e+03
 1.2276460e+01   4.0508780e+03
 1.2281140e+01   4.0551624e+03
 1.2285820e+01   4.0541679e+03
 1.2290500e+01   4.0454958e+03
 1.2295180e+01   4.0494413e+03
 1.2299860e+01   4.0410036e+03
 1.2304540e+01   4.0431340e+03
 1.2309220e+01   4.0511134e+03
 1.2313900e+01   4.0552277e+03
 1.2318580e+01   4.0599801e+03
 1.2323260e+01   4.0641490e+03
 1.2327940e+01   4.0640389e+03
 1.2332620e+01   4.0756142e+03
 1.2337300e+01   4.0936972e+03
 1.2341980e+01   4.1093318e+03
 1.2346660e+01   4.1391457e+03
 1.2351340e+01   4.1605624e+03
 1.2356020e+01   4.1932235e+03
 1.2360700e+01   4.2254903e+03
 1.2365380e+01   4.2591987e+03
 1.2370060e+01   4.2870859e+03
 1.2374740e+01   4.3266850e+03
 1.2379420e+01   4.3376822e+03
 1.2384100e+01   4.3605900e+03
 1.2388780e+01   4.3747050e+03
 1.2393460e+01   4.3750904e+03
 1.2398140e+01   4.3872399e+03
 1.2402820e+01   4.3666866e+03
 1.2407500e+01   4.3868336e+03
 1.2412180e+01   4.3850360e+03
 1.2416860e+01   4.4122705e+03
 1.2421540e+01   4.4374486e+03
 1.2426220e+01   4.4728693e+03
 1.2430900e+01   4.5148360e+03
 1.2435580e+01   4.5639948e+03
 1.2440260e+01   4.6109983e+03
 1.2444940e+01   4.6537733e+03
 1.2449620e+01   4.6809852e+03
 1.2454300e+01   4.6981213e+03
 1.2458980e+01   4.7087337e+03
 1.2463660e+01   4.6891150e+03
 1.2468340e+01   4.6667630e+03
 1.2473020e+01   4.6436675e+03
 1.2477700e+01   4.6076434e+03
 1.2482380e+01   4.5701534e+03
 1.2487060e+01   4.5115193e+03
 1.2491740e+01   4.4580587e+03
 1.2496420e+01   4.4127367e+03
 1.2501100e+01   4.3618639e+03
 1.2505780e+01   4.3096404e+03
 1.2510460e+01   4.2599568e+03
 1.2515140e+01   4.2148154e+03
 1.2519820e+01   4.1730029e+03
 1.2524500e+01   4.1333878e+03
 1.2529180e+01   4.1052845e+03
 1.2533860e+01   4.0753247e+03
 1.2538540e+01   4.0642886e+03
 1.2543220e+01   4.0479074e+03
 1.2547900e+01   4.0307367e+03
 1.2552580e+01   4.0240766e+03
 1.2557260e+01   4.0011211e+03
 1.2561940e+01   4.0142281e+03
 1.2566620e+01   3.9902674e+03
 1.2571300e+01   4.0003449e+03
 1.2575980e+01   3.9854255e+03
 1.2580660e+01   3.9654124e+03
 1.2585340e+01   3.9692641e+03
 1.2590020e+01   3.9594246e+03
 1.2594700e+01   3.9492619e+03
 1.2599380e+01   3.9526407e+03
 1.2604060e+01   3.9480572e+03
 1.2608740e+01   3.9441061e+03
 1.2613420e+01   3.9478437e+03
 1.2618100e+01   3.9542611e+03
 1.2622780e+01   3.9583636e+03
 1.2627460e+01   3.9627419e+03
 1.2632140e+01   3.9813960e+03
 1.2636820e+01   3.9810791e+03
 1.2641500e+01   3.9910093e+03
 1.2646180e+01   4.0160414e+03
 1.2650860e+01   4.0317388e+03
 1.2655540e+01   4.0586658e+03
 1.2660220e+01   4.0929052e+03
 1.2664900e+01   4.1347112e+03
 1.2669580e+01   4.1881872e+03
 1.2674260e+01   4.2542078e+03
 1.2678940e+01   4.3273740e+03
 1.2683620e+01   4.4154055e+03
 1.2688300e+01   4.5109451e+03
 1.2692980e+01   4.6260535e+03
 1.2697660e+01   4.7503799e+03
