MA2-00003.tif Azm= 0.00
2-Theta Angle (Degrees)
Intensity
       2500
 1.0023400e+00   8.0007686e+03
 1.0070200e+00   7.9883057e+03
 1.0117000e+00   7.9195790e+03
 1.0163800e+00   7.9211967e+03
 1.0210600e+00   7.8653649e+03
 1.0257400e+00   7.8881063e+03
 1.0304199e+00   7.8205959e+03
 1.0351000e+00   7.7942279e+03
 1.0397800e+00   7.7740401e+03
 1.0444601e+00   7.7535531e+03
 1.0491400e+00   7.6892991e+03
 1.0538200e+00   7.7287998e+03
 1.0585001e+00   7.6725059e+03
 1.0631800e+00   7.6445906e+03
 1.0678600e+00   7.6863349e+03
 1.0725400e+00   7.6250270e+03
 1.0772200e+00   7.5894664e+03
 1.0819000e+00   7.5712775e+03
 1.0865800e+00   7.5455503e+03
 1.0912600e+00   7.5556784e+03
 1.0959400e+00   7.5204473e+03
 1.1006200e+00   7.5262878e+03
 1.1052999e+00   7.4530191e+03
 1.1099800e+00   7.4725743e+03
 1.1146600e+00   7.4458520e+03
 1.1193399e+00   7.4140701e+03
 1.1240200e+00   7.4240228e+03
 1.1287000e+00   7.4178404e+03
 1.1333801e+00   7.3917167e+03
 1.1380600e+00   7.3901911e+03
 1.1427400e+00   7.3804436e+03
 1.1474200e+00   7.3406834e+03
 1.1521000e+00   7.3412755e+03
 1.1567800e+00   7.3338504e+03
 1.1614600e+00   7.3250273e+03
 1.1661400e+00   7.2946847e+03
 1.1708200e+00   7.2819833e+03
 1.1755000e+00   7.2593217e+03
 1.1801800e+00   7.2840426e+03
 1.1848600e+00   7.2666401e+03
 1.1895400e+00   7.2478082e+03
 1.1942199e+00   7.2345966e+03
 1.1989000e+00   7.2352743e+03
 1.2035800e+00   7.2458845e+03
 1.2082601e+00   7.2316647e+03
 1.2129400e+00   7.2407028e+03
 1.2176200e+00   7.2085005e+03
 1.2223001e+00   7.2161705e+03
 1.2269800e+00   7.2113419e+03
 1.2316600e+00   7.2097740e+03
 1.2363400e+00   7.2108467e+03
 1.2410200e+00   7.1741434e+03
 1.2457000e+00   7.2011142e+03
 1.2503800e+00   7.1844714e+03
 1.2550600e+00   7.1871220e+03
 1.2597400e+00   7.1355307e+03
 1.2644200e+00   7.1624315e+03
 1.2691000e+00   7.1563471e+03
 1.2737800e+00   7.1568554e+03
 1.2784600e+00   7.1672298e+03
 1.2831399e+00   7.1581657e+03
 1.2878200e+00   7.1888453e+03
 1.2925000e+00   7.1744645e+03
 1.2971801e+00   7.1890596e+03
 1.3018600e+00   7.1952917e+03
 1.3065400e+00   7.2037357e+03
 1.3112200e+00   7.2152790e+03
 1.3159000e+00   7.1818574e+03
 1.3205800e+00   7.3023139e+03
 1.3252600e+00   7.3465357e+03
 1.3299400e+00   7.1965737e+03
 1.3346200e+00   7.3836528e+03
 1.3393000e+00   7.2807851e+03
 1.3439800e+00   7.2279802e+03
 1.3486600e+00   7.2561182e+03
 1.3533400e+00   7.2219485e+03
 1.3580199e+00   7.2503676e+03
 1.3627000e+00   7.2945471e+03
 1.3673800e+00   7.2688305e+03
 1.3720599e+00   7.2698076e+03
 1.3767400e+00   7.2943601e+03
 1.3814200e+00   7.2698235e+03
 1.3861001e+00   7.3081937e+03
 1.3907800e+00   7.3015170e+03
 1.3954600e+00   7.3211117e+03
 1.4001400e+00   7.3004225e+03
 1.4048200e+00   7.3220097e+03
 1.4095000e+00   7.3481840e+03
 1.4141800e+00   7.3984961e+03
 1.4188600e+00   7.3761909e+03
 1.4235400e+00   7.4036238e+03
 1.4282200e+00   7.4272791e+03
 1.4329000e+00   7.4330666e+03
 1.4375800e+00   7.4623074e+03
 1.4422600e+00   7.4730124e+03
 1.4469399e+00   7.5455811e+03
 1.4516200e+00   7.5536188e+03
 1.4563000e+00   7.5738534e+03
 1.4609801e+00   7.6058701e+03
 1.4656600e+00   7.6354572e+03
 1.4703400e+00   7.6505132e+03
 1.4750201e+00   7.6662686e+03
 1.4797000e+00   7.6800101e+03
 1.4843800e+00   7.7010330e+03
 1.4890600e+00   7.7276084e+03
 1.4937400e+00   7.7518643e+03
 1.4984200e+00   7.7294989e+03
 1.5031000e+00   7.7764806e+03
 1.5077800e+00   7.7963446e+03
 1.5124600e+00   7.8075624e+03
 1.5171400e+00   7.7819927e+03
 1.5218199e+00   7.8097698e+03
 1.5265000e+00   7.7982591e+03
 1.5311800e+00   7.8242202e+03
 1.5358599e+00   7.7823927e+03
 1.5405400e+00   7.8290501e+03
 1.5452200e+00   7.7995097e+03
 1.5499001e+00   7.7981448e+03
 1.5545800e+00   7.7828132e+03
 1.5592600e+00   7.7784976e+03
 1.5639400e+00   7.7695233e+03
 1.5686200e+00   7.7435827e+03
 1.5733000e+00   7.7666459e+03
 1.5779800e+00   7.7497164e+03
 1.5826600e+00   7.7615876e+03
 1.5873400e+00   7.7493817e+03
 1.5920200e+00   7.7505442e+03
 1.5967000e+00   7.7170096e+03
 1.6013800e+00   7.7111888e+03
 1.6060600e+00   7.7457110e+03
 1.6107399e+00   7.7256792e+03
 1.6154200e+00   7.7444851e+03
 1.6201000e+00   7.7156944e+03
 1.6247801e+00   7.7418337e+03
 1.6294600e+00   7.7127776e+03
 1.6341400e+00   7.7111020e+03
 1.6388201e+00   7.7182286e+03
 1.6435000e+00   7.7460175e+03
 1.6481800e+00   7.7076152e+03
 1.6528600e+00   7.7430669e+03
 1.6575400e+00   7.7181435e+03
 1.6622200e+00   7.7281261e+03
 1.6669000e+00   7.7301481e+03
 1.6715800e+00   7.7643362e+03
 1.6762600e+00   7.7359155e+03
 1.6809400e+00   7.7772259e+03
 1.6856200e+00   7.7551652e+03
 1.6903000e+00   7.7128282e+03
 1.6949800e+00   7.7351216e+03
 1.6996599e+00   7.7497082e+03
 1.7043400e+00   7.7269765e+03
 1.7090200e+00   7.7207907e+03
 1.7137001e+00   7.7425455e+03
 1.7183800e+00   7.7538009e+03
 1.7230600e+00   7.7519021e+03
 1.7277400e+00   7.7616993e+03
 1.7324200e+00   7.7712042e+03
 1.7371000e+00   7.7720564e+03
 1.7417800e+00   7.7928549e+03
 1.7464600e+00   7.7951839e+03
 1.7511400e+00   7.8293583e+03
 1.7558200e+00   7.7742700e+03
 1.7605000e+00   7.8337072e+03
 1.7651800e+00   7.8253076e+03
 1.7698600e+00   7.8129638e+03
 1.7745399e+00   7.8342048e+03
 1.7792200e+00   7.8309004e+03
 1.7839000e+00   7.8721490e+03
 1.7885799e+00   7.8493511e+03
 1.7932600e+00   7.8690784e+03
 1.7979400e+00   7.8865655e+03
 1.8026201e+00   7.9032044e+03
 1.8073000e+00   7.9094921e+03
 1.8119800e+00   7.9377060e+03
 1.8166600e+00   7.9190656e+03
 1.8213400e+00   7.9600563e+03
 1.8260200e+00   8.0030902e+03
 1.8307000e+00   8.0182934e+03
 1.8353800e+00   8.0276261e+03
 1.8400600e+00   8.0594887e+03
 1.8447400e+00   8.0523453e+03
 1.8494200e+00   8.0612650e+03
 1.8541000e+00   8.1117599e+03
 1.8587800e+00   8.1254865e+03
 1.8634599e+00   8.1334315e+03
 1.8681400e+00   8.1420514e+03
 1.8728200e+00   8.1643424e+03
 1.8775001e+00   8.1630818e+03
 1.8821800e+00   8.1881788e+03
 1.8868600e+00   8.2111298e+03
 1.8915401e+00   8.2480903e+03
 1.8962200e+00   8.2730429e+03
 1.9009000e+00   8.2855059e+03
 1.9055800e+00   8.3206068e+03
 1.9102600e+00   8.3517276e+03
 1.9149400e+00   8.3675465e+03
 1.9196200e+00   8.3849970e+03
 1.9243000e+00   8.4367684e+03
 1.9289800e+00   8.4403131e+03
 1.9336600e+00   8.4578622e+03
 1.9383399e+00   8.5149497e+03
 1.9430200e+00   8.5058115e+03
 1.9477000e+00   8.5313422e+03
 1.9523799e+00   8.5842934e+03
 1.9570600e+00   8.5859682e+03
 1.9617400e+00   8.6518338e+03
 1.9664201e+00   8.6445911e+03
 1.9711000e+00   8.8670181e+03
 1.9757800e+00   8.7025247e+03
 1.9804600e+00   8.7990816e+03
 1.9851400e+00   8.7218459e+03
 1.9898200e+00   8.7570794e+03
 1.9945000e+00   8.7837724e+03
 1.9991800e+00   8.7760275e+03
 2.0038600e+00   8.8221421e+03
 2.0085399e+00   8.8030109e+03
 2.0132201e+00   8.8636381e+03
 2.0179000e+00   8.8630690e+03
 2.0225799e+00   8.9092367e+03
 2.0272601e+00   8.9270735e+03
 2.0319400e+00   8.9377066e+03
 2.0366199e+00   8.9342674e+03
 2.0413001e+00   8.9648663e+03
 2.0459800e+00   8.9885648e+03
 2.0506599e+00   9.0112124e+03
 2.0553401e+00   9.0512167e+03
 2.0600200e+00   9.0628607e+03
 2.0646999e+00   9.0766002e+03
 2.0693800e+00   9.1167024e+03
 2.0740600e+00   9.1542597e+03
 2.0787399e+00   9.1463956e+03
 2.0834200e+00   9.2086081e+03
 2.0881000e+00   9.2194854e+03
 2.0927801e+00   9.2989004e+03
 2.0974600e+00   9.3155585e+03
 2.1021399e+00   9.3526700e+03
 2.1068201e+00   9.3706728e+03
 2.1115000e+00   9.4133001e+03
 2.1161799e+00   9.4443417e+03
 2.1208601e+00   9.4582606e+03
 2.1255400e+00   9.4881290e+03
 2.1302199e+00   9.4921773e+03
 2.1349001e+00   9.5326325e+03
 2.1395800e+00   9.5527719e+03
 2.1442599e+00   9.6109856e+03
 2.1489401e+00   9.6521073e+03
 2.1536200e+00   9.7086204e+03
 2.1582999e+00   9.7562115e+03
 2.1629801e+00   9.8445300e+03
 2.1676600e+00   9.9259475e+03
 2.1723399e+00   1.0026330e+04
 2.1770201e+00   1.0129858e+04
 2.1817000e+00   1.0266097e+04
 2.1863799e+00   1.0446338e+04
 2.1910601e+00   1.0652766e+04
 2.1957400e+00   1.0968016e+04
 2.2004199e+00   1.1364058e+04
 2.2051001e+00   1.1891604e+04
 2.2097800e+00   1.2651960e+04
 2.2144599e+00   1.3658220e+04
 2.2191401e+00   1.5085294e+04
 2.2238200e+00   1.6803191e+04
 2.2284999e+00   1.9088507e+04
 2.2331800e+00   2.1608916e+04
 2.2378600e+00   2.4217806e+04
 2.2425399e+00   2.6208042e+04
 2.2472200e+00   2.7516011e+04
 2.2519000e+00   2.7421378e+04
 2.2565801e+00   2.6277476e+04
 2.2612600e+00   2.4275726e+04
 2.2659400e+00   2.1583616e+04
 2.2706201e+00   1.8926573e+04
 2.2753000e+00   1.6561493e+04
 2.2799799e+00   1.4815210e+04
 2.2846601e+00   1.3455649e+04
 2.2893400e+00   1.2560425e+04
 2.2940199e+00   1.1943433e+04
 2.2987001e+00   1.1550806e+04
 2.3033800e+00   1.1272299e+04
 2.3080599e+00   1.1112198e+04
 2.3127401e+00   1.0997003e+04
 2.3174200e+00   1.0913021e+04
 2.3220999e+00   1.0879292e+04
 2.3267801e+00   1.0879972e+04
 2.3314600e+00   1.0854018e+04
 2.3361399e+00   1.0849182e+04
 2.3408201e+00   1.0853509e+04
 2.3455000e+00   1.0880261e+04
 2.3501799e+00   1.0863826e+04
 2.3548601e+00   1.0919285e+04
 2.3595400e+00   1.0933228e+04
 2.3642199e+00   1.0943646e+04
 2.3689001e+00   1.0957575e+04
 2.3735800e+00   1.1000009e+04
 2.3782599e+00   1.1016413e+04
 2.3829401e+00   1.1051356e+04
 2.3876200e+00   1.1078556e+04
 2.3922999e+00   1.1120308e+04
 2.3969800e+00   1.1125324e+04
 2.4016600e+00   1.1187482e+04
 2.4063399e+00   1.1194144e+04
 2.4110200e+00   1.1264369e+04
 2.4157000e+00   1.1274960e+04
 2.4203801e+00   1.1318102e+04
 2.4250600e+00   1.1337968e+04
 2.4297400e+00   1.1385229e+04
 2.4344201e+00   1.1429715e+04
 2.4391000e+00   1.1466072e+04
 2.4437799e+00   1.1503537e+04
 2.4484601e+00   1.1534656e+04
 2.4531400e+00   1.1588395e+04
 2.4578199e+00   1.1617100e+04
 2.4625001e+00   1.1639503e+04
 2.4671800e+00   1.1699941e+04
 2.4718599e+00   1.1758208e+04
 2.4765401e+00   1.1757539e+04
 2.4812200e+00   1.1823107e+04
 2.4858999e+00   1.1845624e+04
 2.4905801e+00   1.1865817e+04
 2.4952600e+00   1.1904268e+04
 2.4999399e+00   1.1962047e+04
 2.5046201e+00   1.2018418e+04
 2.5093000e+00   1.2026917e+04
 2.5139799e+00   1.2075493e+04
 2.5186601e+00   1.2118333e+04
 2.5233400e+00   1.2131156e+04
 2.5280199e+00   1.2191176e+04
 2.5327001e+00   1.2203102e+04
 2.5373800e+00   1.2258731e+04
 2.5420599e+00   1.2280928e+04
 2.5467401e+00   1.2311590e+04
 2.5514200e+00   1.2351705e+04
 2.5560999e+00   1.2376224e+04
 2.5607800e+00   1.2410289e+04
 2.5654600e+00   1.2423280e+04
 2.5701399e+00   1.2482353e+04
 2.5748200e+00   1.2523645e+04
 2.5795000e+00   1.2551234e+04
 2.5841801e+00   1.2585278e+04
 2.5888600e+00   1.2618543e+04
 2.5935400e+00   1.2631144e+04
 2.5982201e+00   1.2682730e+04
 2.6029000e+00   1.2691823e+04
 2.6075799e+00   1.2726067e+04
 2.6122601e+00   1.2718315e+04
 2.6169400e+00   1.2775314e+04
 2.6216199e+00   1.2790454e+04
 2.6263001e+00   1.2825892e+04
 2.6309800e+00   1.2843779e+04
 2.6356599e+00   1.2856781e+04
 2.6403401e+00   1.2862269e+04
 2.6450200e+00   1.2892630e+04
 2.6496999e+00   1.2931645e+04
 2.6543801e+00   1.2943151e+04
 2.6590600e+00   1.2982987e+04
 2.6637399e+00   1.3005295e+04
 2.6684201e+00   1.3009045e+04
 2.6731000e+00   1.3068087e+04
 2.6777799e+00   1.3059849e+04
 2.6824601e+00   1.3042435e+04
 2.6871400e+00   1.3109170e+04
 2.6918199e+00   1.3079604e+04
 2.6965001e+00   1.3107930e+04
 2.7011800e+00   1.3097423e+04
 2.7058599e+00   1.3112648e+04
 2.7105401e+00   1.3125927e+04
 2.7152200e+00   1.3118488e+04
 2.7198999e+00   1.3129472e+04
 2.7245800e+00   1.3124952e+04
 2.7292600e+00   1.3139672e+04
 2.7339399e+00   1.3129753e+04
 2.7386200e+00   1.3111174e+04
 2.7433000e+00   1.3123249e+04
 2.7479801e+00   1.3087637e+04
 2.7526600e+00   1.3112879e+04
 2.7573400e+00   1.3085598e+04
 2.7620201e+00   1.3077930e+04
 2.7667000e+00   1.3088688e+04
 2.7713799e+00   1.3050437e+04
 2.7760601e+00   1.3074647e+04
 2.7807400e+00   1.3059888e+04
 2.7854199e+00   1.3029299e+04
 2.7901001e+00   1.3042127e+04
 2.7947800e+00   1.3040534e+04
 2.7994599e+00   1.3028667e+04
 2.8041401e+00   1.3016606e+04
 2.8088200e+00   1.2995099e+04
 2.8134999e+00   1.2972858e+04
 2.8181801e+00   1.2973921e+04
 2.8228600e+00   1.2945197e+04
 2.8275399e+00   1.2938297e+04
 2.8322201e+00   1.2916296e+04
 2.8369000e+00   1.2887152e+04
 2.8415799e+00   1.2899602e+04
 2.8462601e+00   1.2885088e+04
 2.8509400e+00   1.2861880e+04
 2.8556199e+00   1.2865556e+04
 2.8603001e+00   1.2831282e+04
 2.8649800e+00   1.2808837e+04
 2.8696599e+00   1.2794046e+04
 2.8743401e+00   1.2775904e+04
 2.8790200e+00   1.2756300e+04
 2.8836999e+00   1.2746907e+04
 2.8883801e+00   1.2701961e+04
 2.8930600e+00   1.2684361e+04
 2.8977399e+00   1.2667738e+04
 2.9024200e+00   1.2657000e+04
 2.9071000e+00   1.2628828e+04
 2.9117801e+00   1.2626674e+04
 2.9164600e+00   1.2609315e+04
 2.9211400e+00   1.2588471e+04
 2.9258201e+00   1.2569026e+04
 2.9305000e+00   1.2512497e+04
 2.9351799e+00   1.2537349e+04
 2.9398601e+00   1.2480748e+04
 2.9445400e+00   1.2499316e+04
 2.9492199e+00   1.2451764e+04
 2.9539001e+00   1.2436604e+04
 2.9585800e+00   1.2424567e+04
 2.9632599e+00   1.2375312e+04
 2.9679401e+00   1.2345973e+04
 2.9726200e+00   1.2356469e+04
 2.9772999e+00   1.2301420e+04
 2.9819801e+00   1.2296769e+04
 2.9866600e+00   1.2264091e+04
 2.9913399e+00   1.2217144e+04
 2.9960201e+00   1.2212572e+04
 3.0007000e+00   1.2182151e+04
 3.0053799e+00   1.2156563e+04
 3.0100601e+00   1.2138884e+04
 3.0147400e+00   1.2115842e+04
 3.0194199e+00   1.2060467e+04
 3.0241001e+00   1.2064771e+04
 3.0287800e+00   1.2033953e+04
 3.0334599e+00   1.1992820e+04
 3.0381401e+00   1.1960421e+04
 3.0428200e+00   1.1948832e+04
 3.0474999e+00   1.1906414e+04
 3.0521801e+00   1.1893767e+04
 3.0568600e+00   1.1829068e+04
 3.0615399e+00   1.1813346e+04
 3.0662200e+00   1.1794366e+04
 3.0709000e+00   1.1772199e+04
 3.0755799e+00   1.1740723e+04
 3.0802600e+00   1.1728583e+04
 3.0849400e+00   1.1685045e+04
 3.0896201e+00   1.1662350e+04
 3.0943000e+00   1.1645322e+04
 3.0989799e+00   1.1620588e+04
 3.1036601e+00   1.1562773e+04
 3.1083400e+00   1.1575892e+04
 3.1130199e+00   1.1533840e+04
 3.1177001e+00   1.1534539e+04
 3.1223800e+00   1.1502992e+04
 3.1270599e+00   1.1462790e+04
 3.1317401e+00   1.1467451e+04
 3.1364200e+00   1.1449853e+04
 3.1410999e+00   1.1425657e+04
 3.1457801e+00   1.1417887e+04
 3.1504600e+00   1.1397023e+04
 3.1551399e+00   1.1376450e+04
 3.1598201e+00   1.1335765e+04
 3.1645000e+00   1.1319130e+04
 3.1691799e+00   1.1320487e+04
 3.1738601e+00   1.1275402e+04
 3.1785400e+00   1.1247600e+04
 3.1832199e+00   1.1240647e+04
 3.1879001e+00   1.1246598e+04
 3.1925800e+00   1.1213154e+04
 3.1972599e+00   1.1227837e+04
 3.2019401e+00   1.1177019e+04
 3.2066200e+00   1.1188249e+04
 3.2112999e+00   1.1148144e+04
 3.2159801e+00   1.1143319e+04
 3.2206600e+00   1.1110769e+04
 3.2253399e+00   1.1121110e+04
 3.2300200e+00   1.1078404e+04
 3.2347000e+00   1.1091335e+04
 3.2393799e+00   1.1045798e+04
 3.2440600e+00   1.1025537e+04
 3.2487400e+00   1.1044976e+04
 3.2534201e+00   1.1001981e+04
 3.2581000e+00   1.1017081e+04
 3.2627800e+00   1.1017599e+04
 3.2674601e+00   1.0973189e+04
 3.2721400e+00   1.0975917e+04
 3.2768199e+00   1.0966966e+04
 3.2815001e+00   1.0946543e+04
 3.2861800e+00   1.0953627e+04
 3.2908599e+00   1.0949909e+04
 3.2955401e+00   1.0940631e+04
 3.3002200e+00   1.0922216e+04
 3.3048999e+00   1.0922716e+04
 3.3095801e+00   1.0920456e+04
 3.3142600e+00   1.0944046e+04
 3.3189399e+00   1.0900323e+04
 3.3236201e+00   1.0928308e+04
 3.3283000e+00   1.0898073e+04
 3.3329799e+00   1.0892409e+04
 3.3376601e+00   1.0888143e+04
 3.3423400e+00   1.0888807e+04
 3.3470199e+00   1.0852523e+04
 3.3517001e+00   1.0893243e+04
 3.3563800e+00   1.0831385e+04
 3.3610599e+00   1.0866794e+04
 3.3657401e+00   1.0856636e+04
 3.3704200e+00   1.0875244e+04
 3.3750999e+00   1.0855654e+04
 3.3797801e+00   1.0865143e+04
 3.3844600e+00   1.0843100e+04
 3.3891399e+00   1.0856703e+04
 3.3938200e+00   1.0842717e+04
 3.3985000e+00   1.0874753e+04
 3.4031799e+00   1.0859680e+04
 3.4078600e+00   1.0835968e+04
 3.4125400e+00   1.0892235e+04
 3.4172201e+00   1.0877169e+04
 3.4219000e+00   1.0911009e+04
 3.4265800e+00   1.0874937e+04
 3.4312601e+00   1.0883781e+04
 3.4359400e+00   1.0918339e+04
 3.4406199e+00   1.0902377e+04
 3.4453001e+00   1.0907974e+04
 3.4499800e+00   1.0926363e+04
 3.4546599e+00   1.0906799e+04
 3.4593401e+00   1.0891957e+04
 3.4640200e+00   1.0893841e+04
 3.4686999e+00   1.0908745e+04
 3.4733801e+00   1.0860732e+04
 3.4780600e+00   1.0937584e+04
 3.4827399e+00   1.0908101e+04
 3.4874201e+00   1.0920444e+04
 3.4921000e+00   1.0905038e+04
 3.4967799e+00   1.0892260e+04
 3.5014601e+00   1.0908140e+04
 3.5061400e+00   1.0904285e+04
 3.5108199e+00   1.0890810e+04
 3.5155001e+00   1.0900277e+04
 3.5201800e+00   1.0908843e+04
 3.5248599e+00   1.0873635e+04
 3.5295401e+00   1.0942871e+04
 3.5342200e+00   1.0895078e+04
 3.5388999e+00   1.0950908e+04
 3.5435801e+00   1.0952530e+04
 3.5482600e+00   1.0899675e+04
 3.5529399e+00   1.0926011e+04
 3.5576200e+00   1.0954409e+04
 3.5623000e+00   1.0900391e+04
 3.5669799e+00   1.0974590e+04
 3.5716600e+00   1.0931302e+04
 3.5763400e+00   1.0985145e+04
 3.5810201e+00   1.0964303e+04
 3.5857000e+00   1.0990833e+04
 3.5903800e+00   1.0946734e+04
 3.5950601e+00   1.1070789e+04
 3.5997400e+00   1.0933068e+04
 3.6044199e+00   1.1057360e+04
 3.6091001e+00   1.0982936e+04
 3.6137800e+00   1.0989961e+04
 3.6184599e+00   1.1045704e+04
 3.6231401e+00   1.1036001e+04
 3.6278200e+00   1.1004985e+04
 3.6324999e+00   1.1074276e+04
 3.6371801e+00   1.0992267e+04
 3.6418600e+00   1.1064693e+04
 3.6465399e+00   1.1094397e+04
 3.6512201e+00   1.1005937e+04
 3.6559000e+00   1.1173384e+04
 3.6605799e+00   1.1071114e+04
 3.6652601e+00   1.1130863e+04
 3.6699400e+00   1.1129789e+04
 3.6746199e+00   1.1172135e+04
 3.6793001e+00   1.1109328e+04
 3.6839800e+00   1.1349428e+04
 3.6886599e+00   1.1074927e+04
 3.6933401e+00   1.1361730e+04
 3.6980200e+00   1.1123956e+04
 3.7026999e+00   1.1356115e+04
 3.7073801e+00   1.1264818e+04
 3.7120600e+00   1.1428209e+04
 3.7167399e+00   1.1228911e+04
 3.7214200e+00   1.1614900e+04
 3.7261000e+00   1.1354333e+04
 3.7307799e+00   1.1484549e+04
 3.7354600e+00   1.1512444e+04
 3.7401400e+00   1.1516520e+04
 3.7448201e+00   1.1679440e+04
 3.7495000e+00   1.1608011e+04
 3.7541800e+00   1.1668875e+04
 3.7588601e+00   1.1619525e+04
 3.7635400e+00   1.1746714e+04
 3.7682199e+00   1.1776808e+04
 3.7729001e+00   1.2026635e+04
 3.7775800e+00   1.1773159e+04
 3.7822599e+00   1.2149330e+04
 3.7869401e+00   1.1892347e+04
 3.7916200e+00   1.2211565e+04
 3.7962999e+00   1.2153608e+04
 3.8009801e+00   1.2473335e+04
 3.8056600e+00   1.2080494e+04
 3.8103399e+00   1.2756148e+04
 3.8150201e+00   1.2110657e+04
 3.8197000e+00   1.3009036e+04
 3.8243799e+00   1.2634224e+04
 3.8290601e+00   1.3117895e+04
 3.8337400e+00   1.2732175e+04
 3.8384199e+00   1.3547157e+04
 3.8431001e+00   1.2962870e+04
 3.8477800e+00   1.3738354e+04
 3.8524599e+00   1.3517164e+04
 3.8571401e+00   1.4083909e+04
 3.8618200e+00   1.4016085e+04
 3.8664999e+00   1.4146241e+04
 3.8711801e+00   1.4327024e+04
 3.8758600e+00   1.5001709e+04
 3.8805399e+00   1.4993106e+04
 3.8852201e+00   1.6211727e+04
 3.8899000e+00   1.5702446e+04
 3.8945799e+00   1.7351016e+04
 3.8992600e+00   1.6813722e+04
 3.9039400e+00   2.0317773e+04
 3.9086201e+00   1.7897539e+04
 3.9133000e+00   2.7703873e+04
 3.9179800e+00   2.1307564e+04
 3.9226601e+00   4.4436427e+04
 3.9273400e+00   2.6757759e+04
 3.9320199e+00   6.2302958e+04
 3.9367001e+00   4.1768192e+04
 3.9413800e+00   8.9064966e+04
 3.9460599e+00   6.9485983e+04
 3.9507401e+00   9.3889195e+04
 3.9554200e+00   7.4149614e+04
 3.9600999e+00   9.5815999e+04
 3.9647801e+00   8.8437552e+04
 3.9694600e+00   1.0562447e+05
 3.9741399e+00   1.1097161e+05
 3.9788201e+00   8.9454735e+04
 3.9835000e+00   8.9937997e+04
 3.9881799e+00   5.7099543e+04
 3.9928601e+00   7.4083302e+04
 3.9975400e+00   3.7898391e+04
 4.0022202e+00   3.9125164e+04
 4.0068998e+00   3.3334160e+04
 4.0115800e+00   2.9692010e+04
 4.0162601e+00   1.9912033e+04
 4.0209398e+00   2.0854187e+04
 4.0256200e+00   1.7384654e+04
 4.0303001e+00   1.7793233e+04
 4.0349798e+00   1.5380619e+04
 4.0396600e+00   1.5885985e+04
 4.0443401e+00   1.4917802e+04
 4.0490198e+00   1.4117111e+04
 4.0537000e+00   1.4377227e+04
 4.0583801e+00   1.3282679e+04
 4.0630598e+00   1.3870947e+04
 4.0677400e+00   1.2867644e+04
 4.0724201e+00   1.3087131e+04
 4.0770998e+00   1.2439356e+04
 4.0817800e+00   1.2636546e+04
 4.0864601e+00   1.2340254e+04
 4.0911398e+00   1.2366624e+04
 4.0958200e+00   1.1899401e+04
 4.1005001e+00   1.1811900e+04
 4.1051798e+00   1.1659102e+04
 4.1098599e+00   1.1292900e+04
 4.1145401e+00   1.1535041e+04
 4.1192198e+00   1.1229943e+04
 4.1238999e+00   1.1092912e+04
 4.1285801e+00   1.0925357e+04
 4.1332598e+00   1.0792361e+04
 4.1379399e+00   1.0601818e+04
 4.1426201e+00   1.0828989e+04
 4.1472998e+00   1.0249813e+04
 4.1519799e+00   1.0531075e+04
 4.1566601e+00   1.0183131e+04
 4.1613402e+00   1.0295640e+04
 4.1660199e+00   9.9497954e+03
 4.1707001e+00   1.0146499e+04
 4.1753802e+00   9.7704213e+03
 4.1800599e+00   1.0089182e+04
 4.1847401e+00   9.6073330e+03
 4.1894202e+00   9.8684854e+03
 4.1940999e+00   9.5134504e+03
 4.1987801e+00   9.6426149e+03
 4.2034602e+00   9.5416237e+03
 4.2081399e+00   9.5063095e+03
 4.2128201e+00   9.3997755e+03
 4.2175002e+00   9.4758038e+03
 4.2221799e+00   9.2764971e+03
 4.2268600e+00   9.2008930e+03
 4.2315402e+00   9.3022800e+03
 4.2362199e+00   9.0164214e+03
 4.2409000e+00   9.1201819e+03
 4.2455802e+00   9.0068313e+03
 4.2502599e+00   8.9013172e+03
 4.2549400e+00   8.8352301e+03
 4.2596202e+00   8.8834363e+03
 4.2642999e+00   8.7650226e+03
 4.2689800e+00   8.8465525e+03
 4.2736602e+00   8.6197685e+03
 4.2783399e+00   8.7350433e+03
 4.2830200e+00   8.5164171e+03
 4.2877002e+00   8.5828654e+03
 4.2923799e+00   8.4063291e+03
 4.2970600e+00   8.5363265e+03
 4.3017402e+00   8.3046887e+03
 4.3064198e+00   8.4017594e+03
 4.3111000e+00   8.2254286e+03
 4.3157802e+00   8.3335967e+03
 4.3204598e+00   8.2836883e+03
 4.3251400e+00   8.1832563e+03
 4.3298202e+00   8.1745303e+03
 4.3344998e+00   8.1110207e+03
 4.3391800e+00   8.0205970e+03
 4.3438601e+00   8.0647028e+03
 4.3485398e+00   8.0397077e+03
 4.3532200e+00   7.9999805e+03
 4.3579001e+00   7.9890625e+03
 4.3625798e+00   7.9003254e+03
 4.3672600e+00   7.8967086e+03
 4.3719401e+00   7.8509082e+03
 4.3766198e+00   7.8618609e+03
 4.3813000e+00   7.8431728e+03
 4.3859801e+00   7.8075662e+03
 4.3906598e+00   7.7544990e+03
 4.3953400e+00   7.8094800e+03
 4.4000201e+00   7.7117365e+03
 4.4046998e+00   7.7670839e+03
 4.4093800e+00   7.6962261e+03
 4.4140601e+00   7.7026192e+03
 4.4187398e+00   7.7173373e+03
 4.4234200e+00   7.7235430e+03
 4.4281001e+00   7.6783228e+03
 4.4327798e+00   7.8047914e+03
 4.4374599e+00   7.7496420e+03
 4.4421401e+00   7.8113067e+03
 4.4468198e+00   7.8815611e+03
 4.4514999e+00   7.8862249e+03
 4.4561801e+00   8.0299618e+03
 4.4608598e+00   8.1814890e+03
 4.4655399e+00   8.3247470e+03
 4.4702201e+00   8.5775583e+03
 4.4748998e+00   8.8447084e+03
 4.4795799e+00   9.1333321e+03
 4.4842601e+00   9.5187604e+03
 4.4889398e+00   9.8430016e+03
 4.4936199e+00   1.0148882e+04
 4.4983001e+00   1.0333464e+04
 4.5029802e+00   1.0377476e+04
 4.5076599e+00   1.0270462e+04
 4.5123401e+00   1.0013561e+04
 4.5170202e+00   9.5745166e+03
 4.5216999e+00   9.1862766e+03
 4.5263801e+00   8.7110263e+03
 4.5310602e+00   8.3031549e+03
 4.5357399e+00   7.9895700e+03
 4.5404201e+00   7.7153185e+03
 4.5451002e+00   7.5193664e+03
 4.5497799e+00   7.3904018e+03
 4.5544600e+00   7.2540539e+03
 4.5591402e+00   7.2080741e+03
 4.5638199e+00   7.1335049e+03
 4.5685000e+00   7.0268578e+03
 4.5731802e+00   7.0357954e+03
 4.5778599e+00   7.0035439e+03
 4.5825400e+00   6.9746377e+03
 4.5872202e+00   6.9492410e+03
 4.5918999e+00   6.9047991e+03
 4.5965800e+00   6.8893963e+03
 4.6012602e+00   6.8681701e+03
 4.6059399e+00   6.8659660e+03
 4.6106200e+00   6.8488981e+03
 4.6153002e+00   6.8381990e+03
 4.6199799e+00   6.7997162e+03
 4.6246600e+00   6.7816434e+03
 4.6293402e+00   6.7734386e+03
 4.6340199e+00   6.7769973e+03
 4.6387000e+00   6.7569081e+03
 4.6433802e+00   6.7422285e+03
 4.6480598e+00   6.7466378e+03
 4.6527400e+00   6.7279295e+03
 4.6574202e+00   6.7064228e+03
 4.6620998e+00   6.7463694e+03
 4.6667800e+00   6.7373135e+03
 4.6714602e+00   6.7601995e+03
 4.6761398e+00   6.7877927e+03
 4.6808200e+00   6.8495029e+03
 4.6855001e+00   6.9229163e+03
 4.6901798e+00   7.0725576e+03
 4.6948600e+00   7.2411945e+03
 4.6995401e+00   7.5209539e+03
 4.7042198e+00   7.8672863e+03
 4.7089000e+00   8.3013283e+03
 4.7135801e+00   8.8246375e+03
 4.7182598e+00   9.3043419e+03
 4.7229400e+00   9.7475044e+03
 4.7276201e+00   9.9693160e+03
 4.7322998e+00   1.0069942e+04
 4.7369800e+00   9.9286046e+03
 4.7416601e+00   9.6469800e+03
 4.7463398e+00   9.2424504e+03
 4.7510200e+00   8.8134131e+03
 4.7557001e+00   8.3700380e+03
 4.7603798e+00   7.9622928e+03
 4.7650599e+00   7.6392717e+03
 4.7697401e+00   7.3478662e+03
 4.7744198e+00   7.1423337e+03
 4.7790999e+00   6.9688880e+03
 4.7837801e+00   6.8245180e+03
 4.7884598e+00   6.7501851e+03
 4.7931399e+00   6.6478132e+03
 4.7978201e+00   6.5922216e+03
 4.8024998e+00   6.5723817e+03
 4.8071799e+00   6.5334288e+03
 4.8118601e+00   6.5063654e+03
 4.8165398e+00   6.4807109e+03
 4.8212199e+00   6.4676279e+03
 4.8259001e+00   6.4777942e+03
 4.8305802e+00   6.4850255e+03
 4.8352599e+00   6.4898416e+03
 4.8399401e+00   6.5494400e+03
 4.8446202e+00   6.5646925e+03
 4.8492999e+00   6.6510187e+03
 4.8539801e+00   6.7483124e+03
 4.8586602e+00   6.9161426e+03
 4.8633399e+00   7.1535460e+03
 4.8680201e+00   7.5004258e+03
 4.8727002e+00   7.9399017e+03
 4.8773799e+00   8.5838542e+03
 4.8820601e+00   9.3400896e+03
 4.8867402e+00   1.0225533e+04
 4.8914199e+00   1.1115902e+04
 4.8961000e+00   1.1961916e+04
 4.9007802e+00   1.2500354e+04
 4.9054599e+00   1.2715267e+04
 4.9101400e+00   1.2597228e+04
 4.9148202e+00   1.2100088e+04
 4.9194999e+00   1.1409994e+04
 4.9241800e+00   1.0558703e+04
 4.9288602e+00   9.7536938e+03
 4.9335399e+00   8.9665173e+03
 4.9382200e+00   8.3389702e+03
 4.9429002e+00   7.7700029e+03
 4.9475799e+00   7.4081990e+03
 4.9522600e+00   7.0743090e+03
 4.9569402e+00   6.8582886e+03
 4.9616199e+00   6.6801802e+03
 4.9663000e+00   6.5554416e+03
 4.9709802e+00   6.4505313e+03
 4.9756598e+00   6.3977511e+03
 4.9803400e+00   6.3391692e+03
 4.9850202e+00   6.2971164e+03
 4.9896998e+00   6.2539537e+03
 4.9943800e+00   6.2271409e+03
 4.9990602e+00   6.2071327e+03
 5.0037398e+00   6.1923577e+03
 5.0084200e+00   6.1832228e+03
 5.0131001e+00   6.1570542e+03
 5.0177798e+00   6.1553805e+03
 5.0224600e+00   6.1490608e+03
 5.0271401e+00   6.1225614e+03
 5.0318198e+00   6.1204073e+03
 5.0365000e+00   6.1378012e+03
 5.0411801e+00   6.1135073e+03
 5.0458598e+00   6.1275974e+03
 5.0505400e+00   6.1243318e+03
 5.0552201e+00   6.1718034e+03
 5.0598998e+00   6.1712861e+03
 5.0645800e+00   6.2119102e+03
 5.0692601e+00   6.2464339e+03
 5.0739398e+00   6.3053284e+03
 5.0786200e+00   6.3941252e+03
 5.0833001e+00   6.5429260e+03
 5.0879798e+00   6.6509014e+03
 5.0926600e+00   6.8290854e+03
 5.0973401e+00   6.9548033e+03
 5.1020198e+00   7.3637083e+03
 5.1066999e+00   7.6912637e+03
 5.1113801e+00   7.8002304e+03
 5.1160598e+00   7.6005177e+03
 5.1207399e+00   7.9035027e+03
 5.1254201e+00   8.5345847e+03
 5.1300998e+00   9.9043514e+03
 5.1347799e+00   1.0995955e+04
 5.1394601e+00   1.2422661e+04
 5.1441398e+00   1.2979810e+04
 5.1488199e+00   1.3039722e+04
 5.1535001e+00   1.2196478e+04
 5.1581802e+00   1.1122756e+04
 5.1628599e+00   9.7515766e+03
 5.1675401e+00   8.6598413e+03
 5.1722202e+00   7.6890724e+03
 5.1768999e+00   7.0608669e+03
 5.1815801e+00   6.6241003e+03
 5.1862602e+00   6.5237948e+03
 5.1909399e+00   6.6257485e+03
 5.1956201e+00   6.5721157e+03
 5.2003002e+00   6.4674790e+03
 5.2049799e+00   6.2858740e+03
 5.2096601e+00   6.2587551e+03
 5.2143402e+00   6.2172754e+03
 5.2190199e+00   6.1682603e+03
 5.2237000e+00   6.1061277e+03
 5.2283802e+00   6.0650768e+03
 5.2330599e+00   6.0548772e+03
 5.2377400e+00   6.0199028e+03
 5.2424202e+00   5.9872869e+03
 5.2470999e+00   5.9644896e+03
 5.2517800e+00   5.9565397e+03
 5.2564602e+00   5.9304113e+03
 5.2611399e+00   5.9236759e+03
 5.2658200e+00   5.8946240e+03
 5.2705002e+00   5.8951558e+03
 5.2751799e+00   5.8873926e+03
 5.2798600e+00   5.8750540e+03
 5.2845402e+00   5.8420011e+03
 5.2892199e+00   5.8690307e+03
 5.2939000e+00   5.8458977e+03
 5.2985802e+00   5.8357706e+03
 5.3032598e+00   5.8518409e+03
 5.3079400e+00   5.8261907e+03
 5.3126202e+00   5.8354113e+03
 5.3172998e+00   5.8311518e+03
 5.3219800e+00   5.8105833e+03
 5.3266602e+00   5.8335492e+03
 5.3313398e+00   5.8014833e+03
 5.3360200e+00   5.7909261e+03
 5.3407001e+00   5.8268553e+03
 5.3453798e+00   5.8072197e+03
 5.3500600e+00   5.7992160e+03
 5.3547401e+00   5.8065767e+03
 5.3594198e+00   5.7868427e+03
 5.3641000e+00   5.8040571e+03
 5.3687801e+00   5.7933873e+03
 5.3734598e+00   5.7690972e+03
 5.3781400e+00   5.8161155e+03
 5.3828201e+00   5.7910124e+03
 5.3874998e+00   5.7744859e+03
 5.3921800e+00   5.8050652e+03
 5.3968601e+00   5.8006149e+03
 5.4015398e+00   5.8080306e+03
 5.4062200e+00   5.8286453e+03
 5.4109001e+00   5.8042471e+03
 5.4155798e+00   5.8553103e+03
 5.4202600e+00   5.8476995e+03
 5.4249401e+00   5.8380129e+03
 5.4296198e+00   5.8920135e+03
 5.4342999e+00   5.8935620e+03
 5.4389801e+00   5.9048419e+03
 5.4436598e+00   5.9466249e+03
 5.4483399e+00   5.9735026e+03
 5.4530201e+00   6.0345619e+03
 5.4576998e+00   6.0825882e+03
 5.4623799e+00   6.0895036e+03
 5.4670601e+00   6.2093497e+03
 5.4717398e+00   6.2612051e+03
 5.4764199e+00   6.3774162e+03
 5.4811001e+00   6.5386954e+03
 5.4857798e+00   6.6852148e+03
 5.4904599e+00   6.9363399e+03
 5.4951401e+00   7.2418824e+03
 5.4998202e+00   7.6640788e+03
 5.5044999e+00   8.2956687e+03
 5.5091801e+00   9.0957328e+03
 5.5138602e+00   1.0247720e+04
 5.5185399e+00   1.1774561e+04
 5.5232201e+00   1.3787961e+04
 5.5279002e+00   1.6246543e+04
 5.5325799e+00   1.9188385e+04
 5.5372601e+00   2.2223510e+04
 5.5419402e+00   2.5225183e+04
 5.5466199e+00   2.7433714e+04
 5.5513000e+00   2.8643106e+04
 5.5559802e+00   2.8749553e+04
 5.5606599e+00   2.7476964e+04
 5.5653400e+00   2.5310084e+04
 5.5700202e+00   2.2547214e+04
 5.5746999e+00   1.9653111e+04
 5.5793800e+00   1.6882214e+04
 5.5840602e+00   1.4564705e+04
 5.5887399e+00   1.2582422e+04
 5.5934200e+00   1.1236975e+04
 5.5981002e+00   1.0790012e+04
 5.6027799e+00   1.0690124e+04
 5.6074600e+00   9.2457416e+03
 5.6121402e+00   8.1593836e+03
 5.6168199e+00   7.4271799e+03
 5.6215000e+00   7.0475691e+03
 5.6261802e+00   6.7450326e+03
 5.6308599e+00   6.5490874e+03
 5.6355400e+00   6.3692887e+03
 5.6402202e+00   6.2316778e+03
 5.6448998e+00   6.1749055e+03
 5.6495800e+00   6.0869872e+03
 5.6542602e+00   6.0367211e+03
 5.6589398e+00   5.9950171e+03
 5.6636200e+00   5.9262259e+03
 5.6683002e+00   5.9225980e+03
 5.6729798e+00   5.8893354e+03
 5.6776600e+00   5.8432891e+03
 5.6823401e+00   5.8492640e+03
 5.6870198e+00   5.8187344e+03
 5.6917000e+00   5.7959238e+03
 5.6963801e+00   5.8022547e+03
 5.7010598e+00   5.7602403e+03
 5.7057400e+00   5.7730075e+03
 5.7104201e+00   5.7675578e+03
 5.7150998e+00   5.7294867e+03
 5.7197800e+00   5.7780445e+03
 5.7244601e+00   5.7489990e+03
 5.7291398e+00   5.7301410e+03
 5.7338200e+00   5.7772259e+03
 5.7385001e+00   5.7627623e+03
 5.7431798e+00   5.7543182e+03
 5.7478600e+00   5.7853649e+03
 5.7525401e+00   5.7753451e+03
 5.7572198e+00   5.8075857e+03
 5.7618999e+00   5.7956003e+03
 5.7665801e+00   5.7744984e+03
 5.7712598e+00   5.8002510e+03
 5.7759399e+00   5.7719022e+03
 5.7806201e+00   5.7619531e+03
 5.7852998e+00   5.7775567e+03
 5.7899799e+00   5.7308330e+03
 5.7946601e+00   5.7478891e+03
 5.7993398e+00   5.7493216e+03
 5.8040199e+00   5.7091311e+03
 5.8087001e+00   5.7466466e+03
 5.8133798e+00   5.7070500e+03
 5.8180599e+00   5.6980861e+03
 5.8227401e+00   5.7157111e+03
 5.8274202e+00   5.7067412e+03
 5.8320999e+00   5.6959524e+03
 5.8367801e+00   5.7165596e+03
 5.8414602e+00   5.6682092e+03
 5.8461399e+00   5.7011744e+03
 5.8508201e+00   5.7010955e+03
 5.8555002e+00   5.7036681e+03
 5.8601799e+00   5.7285105e+03
 5.8648601e+00   5.7303848e+03
 5.8695402e+00   5.7340057e+03
 5.8742199e+00   5.7602659e+03
 5.8789001e+00   5.7677658e+03
 5.8835802e+00   5.8075439e+03
 5.8882599e+00   5.8388150e+03
 5.8929400e+00   5.8467369e+03
 5.8976202e+00   5.9233634e+03
 5.9022999e+00   5.9506951e+03
 5.9069800e+00   6.0658321e+03
 5.9116602e+00   6.2483311e+03
 5.9163399e+00   6.3888789e+03
 5.9210200e+00   6.5740201e+03
 5.9257002e+00   6.6671725e+03
 5.9303799e+00   7.1360149e+03
 5.9350600e+00   7.4049063e+03
 5.9397402e+00   7.7352249e+03
 5.9444199e+00   7.7455078e+03
 5.9491000e+00   7.6417814e+03
 5.9537802e+00   7.3618742e+03
 5.9584599e+00   7.0846081e+03
 5.9631400e+00   6.8154415e+03
 5.9678202e+00   6.7499531e+03
 5.9724998e+00   6.6655471e+03
 5.9771800e+00   6.5789967e+03
 5.9818602e+00   6.5096046e+03
 5.9865398e+00   6.5143702e+03
 5.9912200e+00   6.5115948e+03
 5.9959002e+00   6.4669475e+03
 6.0005798e+00   6.4153894e+03
 6.0052600e+00   6.3071895e+03
 6.0099401e+00   6.2427399e+03
 6.0146198e+00   6.1570321e+03
 6.0193000e+00   6.0465224e+03
 6.0239801e+00   6.0311116e+03
 6.0286598e+00   5.9222756e+03
 6.0333400e+00   5.8969407e+03
 6.0380201e+00   5.8661886e+03
 6.0426998e+00   5.8209812e+03
 6.0473800e+00   5.8227588e+03
 6.0520601e+00   5.8148556e+03
 6.0567398e+00   5.7675439e+03
 6.0614200e+00   5.7831858e+03
 6.0661001e+00   5.7582398e+03
 6.0707798e+00   5.7400817e+03
 6.0754600e+00   5.7580931e+03
 6.0801401e+00   5.7559212e+03
 6.0848198e+00   5.7322435e+03
 6.0895000e+00   5.7498630e+03
 6.0941801e+00   5.7289564e+03
 6.0988598e+00   5.7625947e+03
 6.1035399e+00   5.7448354e+03
 6.1082201e+00   5.7282720e+03
 6.1128998e+00   5.7608170e+03
 6.1175799e+00   5.7465240e+03
 6.1222601e+00   5.7384882e+03
 6.1269398e+00   5.7455423e+03
 6.1316199e+00   5.7401295e+03
 6.1363001e+00   5.7440632e+03
 6.1409798e+00   5.7585911e+03
 6.1456599e+00   5.7324123e+03
 6.1503401e+00   5.7546235e+03
 6.1550202e+00   5.7545736e+03
 6.1596999e+00   5.7594988e+03
 6.1643801e+00   5.7691826e+03
 6.1690602e+00   5.7699304e+03
 6.1737399e+00   5.7700367e+03
 6.1784201e+00   5.7826700e+03
 6.1831002e+00   5.7548006e+03
 6.1877799e+00   5.7848242e+03
 6.1924601e+00   5.7889993e+03
 6.1971402e+00   5.7713107e+03
 6.2018199e+00   5.7893758e+03
 6.2065001e+00   5.7900242e+03
 6.2111802e+00   5.7972620e+03
 6.2158599e+00   5.8095633e+03
 6.2205400e+00   5.7847105e+03
 6.2252202e+00   5.8147741e+03
 6.2298999e+00   5.8193594e+03
 6.2345800e+00   5.8064714e+03
 6.2392602e+00   5.8345419e+03
 6.2439399e+00   5.8212127e+03
 6.2486200e+00   5.8213241e+03
 6.2533002e+00   5.8288975e+03
 6.2579799e+00   5.8272684e+03
 6.2626600e+00   5.8359985e+03
 6.2673402e+00   5.8385786e+03
 6.2720199e+00   5.8180612e+03
 6.2767000e+00   5.8688099e+03
 6.2813802e+00   5.8437937e+03
 6.2860599e+00   5.8473671e+03
 6.2907400e+00   5.8558058e+03
 6.2954202e+00   5.8583496e+03
 6.3000998e+00   5.8519841e+03
 6.3047800e+00   5.8901968e+03
 6.3094602e+00   5.8534331e+03
 6.3141398e+00   5.8891841e+03
 6.3188200e+00   5.8791434e+03
 6.3235002e+00   5.8843737e+03
 6.3281798e+00   5.9267969e+03
 6.3328600e+00   5.9134376e+03
 6.3375401e+00   5.9253508e+03
 6.3422198e+00   5.9232504e+03
 6.3469000e+00   5.9068342e+03
 6.3515801e+00   5.9291557e+03
 6.3562598e+00   5.9542694e+03
 6.3609400e+00   5.9265349e+03
 6.3656201e+00   5.9543945e+03
 6.3702998e+00   5.9267144e+03
 6.3749800e+00   5.9470132e+03
 6.3796601e+00   5.9404716e+03
 6.3843398e+00   5.9684237e+03
 6.3890200e+00   5.9648724e+03
 6.3937001e+00   5.9908941e+03
 6.3983798e+00   5.9493706e+03
 6.4030600e+00   5.9974248e+03
 6.4077401e+00   5.9981705e+03
 6.4124198e+00   6.0010610e+03
 6.4171000e+00   6.0332170e+03
 6.4217801e+00   6.0183330e+03
 6.4264598e+00   6.0226727e+03
 6.4311399e+00   6.0423233e+03
 6.4358201e+00   6.0395996e+03
 6.4404998e+00   6.0470295e+03
 6.4451799e+00   6.0992373e+03
 6.4498601e+00   6.0529998e+03
 6.4545398e+00   6.1078653e+03
 6.4592199e+00   6.0707953e+03
 6.4639001e+00   6.1190284e+03
 6.4685798e+00   6.1099083e+03
 6.4732599e+00   6.1352536e+03
 6.4779401e+00   6.1242967e+03
 6.4826198e+00   6.1610129e+03
 6.4872999e+00   6.1321714e+03
 6.4919801e+00   6.1982912e+03
 6.4966602e+00   6.1915068e+03
 6.5013399e+00   6.1974708e+03
 6.5060201e+00   6.2253468e+03
 6.5107002e+00   6.2202809e+03
 6.5153799e+00   6.2618727e+03
 6.5200601e+00   6.2566183e+03
 6.5247402e+00   6.3089942e+03
 6.5294199e+00   6.2546343e+03
 6.5341001e+00   6.3290414e+03
 6.5387802e+00   6.2821754e+03
 6.5434599e+00   6.3551795e+03
 6.5481400e+00   6.3194188e+03
 6.5528202e+00   6.4011849e+03
 6.5574999e+00   6.3712618e+03
 6.5621800e+00   6.3886289e+03
 6.5668602e+00   6.3678559e+03
 6.5715399e+00   6.4879235e+03
 6.5762200e+00   6.3942902e+03
 6.5809002e+00   6.5155079e+03
 6.5855799e+00   6.4390076e+03
 6.5902600e+00   6.5219204e+03
 6.5949402e+00   6.5186806e+03
 6.5996199e+00   6.5504317e+03
 6.6043000e+00   6.5964417e+03
 6.6089802e+00   6.5916613e+03
 6.6136599e+00   6.6194911e+03
 6.6183400e+00   6.6259699e+03
 6.6230202e+00   6.6802138e+03
 6.6276999e+00   6.6437541e+03
 6.6323800e+00   6.7569562e+03
 6.6370602e+00   6.6866520e+03
 6.6417398e+00   6.7880281e+03
 6.6464200e+00   6.7435074e+03
 6.6511002e+00   6.8292551e+03
 6.6557798e+00   6.7987854e+03
 6.6604600e+00   6.9494828e+03
 6.6651402e+00   6.8303778e+03
 6.6698198e+00   6.9438146e+03
 6.6745000e+00   6.8802805e+03
 6.6791801e+00   6.9872942e+03
 6.6838598e+00   6.9944756e+03
 6.6885400e+00   7.0214552e+03
 6.6932201e+00   7.0718073e+03
 6.6978998e+00   7.0624911e+03
 6.7025800e+00   7.1300096e+03
 6.7072601e+00   7.1054039e+03
 6.7119398e+00   7.1959560e+03
 6.7166200e+00   7.1590744e+03
 6.7213001e+00   7.2899653e+03
 6.7259798e+00   7.1694709e+03
 6.7306600e+00   7.3269784e+03
 6.7353401e+00   7.3222872e+03
 6.7400198e+00   7.4388601e+03
 6.7447000e+00   7.3557141e+03
 6.7493801e+00   7.4456108e+03
 6.7540598e+00   7.3926375e+03
 6.7587399e+00   7.5949785e+03
 6.7634201e+00   7.5140693e+03
 6.7680998e+00   7.5922457e+03
 6.7727799e+00   7.6705987e+03
 6.7774601e+00   7.5868692e+03
 6.7821398e+00   7.7257737e+03
 6.7868199e+00   7.7037182e+03
 6.7915001e+00   7.8330727e+03
 6.7961798e+00   7.7923892e+03
 6.8008599e+00   7.9394177e+03
 6.8055401e+00   7.8428313e+03
 6.8102198e+00   8.0697079e+03
 6.8148999e+00   8.0616998e+03
 6.8195801e+00   8.3158154e+03
 6.8242602e+00   8.2167385e+03
 6.8289399e+00   8.5927535e+03
 6.8336201e+00   8.4573742e+03
 6.8383002e+00   8.9847543e+03
 6.8429799e+00   9.6175452e+03
 6.8476601e+00   1.0458280e+04
 6.8523402e+00   1.2177810e+04
 6.8570199e+00   1.4288152e+04
 6.8617001e+00   1.8063264e+04
 6.8663802e+00   2.4089380e+04
 6.8710599e+00   3.0056976e+04
 6.8757401e+00   2.9007328e+04
 6.8804202e+00   2.7334119e+04
 6.8850999e+00   2.7833712e+04
 6.8897800e+00   2.0943754e+04
 6.8944602e+00   2.0997853e+04
 6.8991399e+00   2.0240113e+04
 6.9038200e+00   1.1848522e+04
 6.9085002e+00   1.1887266e+04
 6.9131799e+00   1.0000511e+04
 6.9178600e+00   9.5662426e+03
 6.9225402e+00   9.1474931e+03
 6.9272199e+00   9.1279281e+03
 6.9319000e+00   8.7166112e+03
 6.9365802e+00   8.5836474e+03
 6.9412599e+00   8.4403979e+03
 6.9459400e+00   8.3405527e+03
 6.9506202e+00   8.4712441e+03
 6.9552999e+00   8.3532917e+03
 6.9599800e+00   8.4068830e+03
 6.9646602e+00   8.1839829e+03
 6.9693398e+00   8.2229727e+03
 6.9740200e+00   8.2517505e+03
 6.9787002e+00   8.4351493e+03
 6.9833798e+00   8.3002222e+03
 6.9880600e+00   8.5962452e+03
 6.9927402e+00   8.4937151e+03
 6.9974198e+00   8.8153819e+03
 7.0021000e+00   8.8828272e+03
 7.0067801e+00   9.3372730e+03
 7.0114598e+00   9.5025008e+03
 7.0161400e+00   9.8103842e+03
 7.0208201e+00   1.0006500e+04
 7.0254998e+00   1.0232747e+04
 7.0301800e+00   1.0303659e+04
 7.0348601e+00   1.0320379e+04
 7.0395398e+00   1.0192384e+04
 7.0442200e+00   9.8376216e+03
 7.0489001e+00   9.6388443e+03
 7.0535798e+00   9.2224109e+03
 7.0582600e+00   9.0077875e+03
 7.0629401e+00   8.7095413e+03
 7.0676198e+00   8.4753355e+03
 7.0723000e+00   8.1763267e+03
 7.0769801e+00   7.9931297e+03
 7.0816598e+00   7.7681962e+03
 7.0863400e+00   7.7839837e+03
 7.0910201e+00   7.4802307e+03
 7.0956998e+00   7.4995106e+03
 7.1003799e+00   7.3602315e+03
 7.1050601e+00   7.2879475e+03
 7.1097398e+00   7.2114458e+03
 7.1144199e+00   7.2116679e+03
 7.1191001e+00   7.1454550e+03
 7.1237798e+00   7.1275123e+03
 7.1284599e+00   7.0856609e+03
 7.1331401e+00   7.0331676e+03
 7.1378198e+00   7.0536461e+03
 7.1424999e+00   7.0058626e+03
 7.1471801e+00   7.0112834e+03
 7.1518602e+00   6.9690030e+03
 7.1565399e+00   6.9637684e+03
 7.1612201e+00   6.9171852e+03
 7.1659002e+00   6.9425651e+03
 7.1705799e+00   6.8619475e+03
 7.1752601e+00   6.9338787e+03
 7.1799402e+00   6.8267227e+03
 7.1846199e+00   6.8824154e+03
 7.1893001e+00   6.8237367e+03
 7.1939802e+00   6.8554812e+03
 7.1986599e+00   6.8011190e+03
 7.2033401e+00   6.8007092e+03
 7.2080202e+00   6.7807459e+03
 7.2126999e+00   6.7959706e+03
 7.2173800e+00   6.7471532e+03
 7.2220602e+00   6.7593310e+03
 7.2267399e+00   6.7579422e+03
 7.2314200e+00   6.7344734e+03
 7.2361002e+00   6.7647958e+03
 7.2407799e+00   6.7216420e+03
 7.2454600e+00   6.7382479e+03
 7.2501402e+00   6.7494944e+03
 7.2548199e+00   6.7414295e+03
 7.2595000e+00   6.7178492e+03
 7.2641802e+00   6.7819041e+03
 7.2688599e+00   6.7092435e+03
 7.2735400e+00   6.7682603e+03
 7.2782202e+00   6.6962919e+03
 7.2828999e+00   6.7378214e+03
 7.2875800e+00   6.6956360e+03
 7.2922602e+00   6.6921460e+03
 7.2969398e+00   6.6624519e+03
 7.3016200e+00   6.6833766e+03
 7.3063002e+00   6.6419995e+03
 7.3109798e+00   6.6563612e+03
 7.3156600e+00   6.6371773e+03
 7.3203402e+00   6.6300334e+03
 7.3250198e+00   6.6530187e+03
 7.3297000e+00   6.6262710e+03
 7.3343801e+00   6.6387635e+03
 7.3390598e+00   6.6278011e+03
 7.3437400e+00   6.6432919e+03
 7.3484201e+00   6.6230945e+03
 7.3530998e+00   6.6453841e+03
 7.3577800e+00   6.6048768e+03
 7.3624601e+00   6.6219706e+03
 7.3671398e+00   6.5970102e+03
 7.3718200e+00   6.5963485e+03
 7.3765001e+00   6.5897725e+03
 7.3811798e+00   6.5666046e+03
 7.3858600e+00   6.5654287e+03
 7.3905401e+00   6.5391000e+03
 7.3952198e+00   6.5264416e+03
 7.3999000e+00   6.5062016e+03
 7.4045801e+00   6.4962824e+03
 7.4092598e+00   6.4808018e+03
 7.4139400e+00   6.4903878e+03
 7.4186201e+00   6.4475873e+03
 7.4232998e+00   6.4466403e+03
 7.4279799e+00   6.4373095e+03
 7.4326601e+00   6.4501893e+03
 7.4373398e+00   6.4360290e+03
 7.4420199e+00   6.4381315e+03
 7.4467001e+00   6.4313865e+03
 7.4513798e+00   6.4395006e+03
 7.4560599e+00   6.4368693e+03
 7.4607401e+00   6.4465471e+03
 7.4654198e+00   6.4374112e+03
 7.4700999e+00   6.4406978e+03
 7.4747801e+00   6.4545387e+03
 7.4794598e+00   6.4409498e+03
 7.4841399e+00   6.4651243e+03
 7.4888201e+00   6.4659345e+03
 7.4935002e+00   6.4636307e+03
 7.4981799e+00   6.4735095e+03
 7.5028601e+00   6.5027214e+03
 7.5075402e+00   6.5013315e+03
 7.5122199e+00   6.5319680e+03
 7.5169001e+00   6.5415300e+03
 7.5215802e+00   6.5952762e+03
 7.5262599e+00   6.6350150e+03
 7.5309401e+00   6.6733972e+03
 7.5356202e+00   6.7371735e+03
 7.5402999e+00   6.8074217e+03
 7.5449800e+00   6.9087617e+03
 7.5496602e+00   7.0110296e+03
 7.5543399e+00   7.1739400e+03
 7.5590200e+00   7.3688815e+03
 7.5637002e+00   7.6298695e+03
 7.5683799e+00   7.9271534e+03
 7.5730600e+00   8.3119437e+03
 7.5777402e+00   8.7651751e+03
 7.5824199e+00   9.2989273e+03
 7.5871000e+00   9.8631505e+03
 7.5917802e+00   1.0494354e+04
 7.5964599e+00   1.1047647e+04
 7.6011400e+00   1.1543282e+04
 7.6058202e+00   1.1838849e+04
 7.6104999e+00   1.1945151e+04
 7.6151800e+00   1.1854054e+04
 7.6198602e+00   1.1472387e+04
 7.6245399e+00   1.1030518e+04
 7.6292200e+00   1.0396668e+04
 7.6339002e+00   9.7839243e+03
 7.6385798e+00   9.1527565e+03
 7.6432600e+00   8.6265333e+03
 7.6479402e+00   8.1324754e+03
 7.6526198e+00   7.7968396e+03
 7.6573000e+00   7.4527610e+03
 7.6619802e+00   7.2401819e+03
 7.6666598e+00   7.0172579e+03
 7.6713400e+00   6.9215758e+03
 7.6760201e+00   6.7674947e+03
 7.6806998e+00   6.7167079e+03
 7.6853800e+00   6.6155345e+03
 7.6900601e+00   6.5870034e+03
 7.6947398e+00   6.5202320e+03
 7.6994200e+00   6.4905043e+03
 7.7041001e+00   6.4820720e+03
 7.7087798e+00   6.4492104e+03
 7.7134600e+00   6.4305474e+03
 7.7181401e+00   6.3941665e+03
 7.7228198e+00   6.4352786e+03
 7.7275000e+00   6.3685471e+03
 7.7321801e+00   6.3778423e+03
 7.7368598e+00   6.3548891e+03
 7.7415400e+00   6.3936601e+03
 7.7462201e+00   6.3356018e+03
 7.7508998e+00   6.3769360e+03
 7.7555799e+00   6.3137672e+03
 7.7602601e+00   6.3829753e+03
 7.7649398e+00   6.3130975e+03
 7.7696199e+00   6.3596078e+03
 7.7743001e+00   6.3468858e+03
 7.7789798e+00   6.3518734e+03
 7.7836599e+00   6.3605730e+03
 7.7883401e+00   6.3378091e+03
 7.7930198e+00   6.3623972e+03
 7.7976999e+00   6.3417215e+03
 7.8023801e+00   6.3745401e+03
 7.8070598e+00   6.3592257e+03
 7.8117399e+00   6.3769800e+03
 7.8164201e+00   6.3420545e+03
 7.8211002e+00   6.4072326e+03
 7.8257799e+00   6.3283427e+03
 7.8304601e+00   6.4331336e+03
 7.8351402e+00   6.3753924e+03
 7.8398199e+00   6.4495066e+03
 7.8445001e+00   6.3468878e+03
 7.8491802e+00   6.4413997e+03
 7.8538599e+00   6.3690275e+03
 7.8585401e+00   6.5232703e+03
 7.8632202e+00   6.4077299e+03
 7.8678999e+00   6.4827793e+03
 7.8725801e+00   6.4670334e+03
 7.8772602e+00   6.5134321e+03
 7.8819399e+00   6.5254548e+03
 7.8866200e+00   6.5977497e+03
 7.8913002e+00   6.6344037e+03
 7.8959799e+00   6.5444803e+03
 7.9006600e+00   6.7744222e+03
 7.9053402e+00   6.6869317e+03
 7.9100199e+00   7.1539410e+03
 7.9147000e+00   7.4439580e+03
 7.9193802e+00   8.1005945e+03
 7.9240599e+00   7.7012042e+03
 7.9287400e+00   1.1367855e+04
 7.9334202e+00   9.9663149e+03
 7.9380999e+00   1.7530273e+04
 7.9427800e+00   1.4163935e+04
 7.9474602e+00   1.8430698e+04
 7.9521399e+00   9.3544606e+03
 7.9568200e+00   1.1821964e+04
 7.9615002e+00   9.0253437e+03
 7.9661798e+00   8.1650523e+03
 7.9708600e+00   7.2114587e+03
 7.9755402e+00   6.9939527e+03
 7.9802198e+00   6.7727435e+03
 7.9849000e+00   6.7070095e+03
 7.9895802e+00   6.6884322e+03
 7.9942598e+00   6.5740880e+03
 7.9989400e+00   6.5662366e+03
 8.0036201e+00   6.4534355e+03
 8.0082998e+00   6.5263713e+03
 8.0129805e+00   6.4678402e+03
 8.0176601e+00   6.6116616e+03
 8.0223398e+00   6.4867481e+03
 8.0270205e+00   6.6366712e+03
 8.0317001e+00   6.5895107e+03
 8.0363798e+00   6.8318746e+03
 8.0410604e+00   6.9455518e+03
 8.0457401e+00   7.1692691e+03
 8.0504198e+00   7.4131830e+03
 8.0551004e+00   7.7444359e+03
 8.0597801e+00   8.2079530e+03
 8.0644598e+00   8.6719004e+03
 8.0691404e+00   9.3191697e+03
 8.0738201e+00   9.7667504e+03
 8.0784998e+00   1.0344254e+04
 8.0831804e+00   1.0682168e+04
 8.0878601e+00   1.1050248e+04
 8.0925398e+00   1.1071134e+04
 8.0972204e+00   1.1104953e+04
 8.1019001e+00   1.0809754e+04
 8.1065798e+00   1.0539829e+04
 8.1112604e+00   1.0032113e+04
 8.1159401e+00   9.6354892e+03
 8.1206198e+00   9.1124118e+03
 8.1253004e+00   8.6715516e+03
 8.1299801e+00   8.2722137e+03
 8.1346598e+00   7.8745471e+03
 8.1393404e+00   7.5473451e+03
 8.1440201e+00   7.2392035e+03
 8.1486998e+00   7.0384866e+03
 8.1533804e+00   6.7739342e+03
 8.1580601e+00   6.6576804e+03
 8.1627398e+00   6.4470387e+03
 8.1674204e+00   6.3858225e+03
 8.1721001e+00   6.2194918e+03
 8.1767797e+00   6.2001491e+03
 8.1814604e+00   6.0521839e+03
 8.1861401e+00   6.0446343e+03
 8.1908197e+00   5.9265046e+03
 8.1955004e+00   5.9148544e+03
 8.2001801e+00   5.8596963e+03
 8.2048597e+00   5.8476100e+03
 8.2095404e+00   5.8064765e+03
 8.2142200e+00   5.7843213e+03
 8.2188997e+00   5.7830432e+03
 8.2235804e+00   5.7459162e+03
 8.2282600e+00   5.7485578e+03
 8.2329397e+00   5.7031712e+03
 8.2376204e+00   5.7021951e+03
 8.2423000e+00   5.6766412e+03
 8.2469797e+00   5.6912135e+03
 8.2516603e+00   5.6308850e+03
 8.2563400e+00   5.6715903e+03
 8.2610197e+00   5.6061861e+03
 8.2657003e+00   5.6165583e+03
 8.2703800e+00   5.5671407e+03
 8.2750597e+00   5.5944881e+03
 8.2797403e+00   5.5567266e+03
 8.2844200e+00   5.5734846e+03
 8.2890997e+00   5.5435263e+03
 8.2937803e+00   5.5399696e+03
 8.2984600e+00   5.5507614e+03
 8.3031397e+00   5.5363848e+03
 8.3078203e+00   5.5444723e+03
 8.3125000e+00   5.5138293e+03
 8.3171797e+00   5.5439480e+03
 8.3218603e+00   5.5254686e+03
 8.3265400e+00   5.5653541e+03
 8.3312197e+00   5.5628715e+03
 8.3359003e+00   5.6066299e+03
 8.3405800e+00   5.6191388e+03
 8.3452597e+00   5.6775516e+03
 8.3499403e+00   5.7385512e+03
 8.3546200e+00   5.8733494e+03
 8.3592997e+00   5.9659259e+03
 8.3639803e+00   6.1442106e+03
 8.3686600e+00   6.3799819e+03
 8.3733397e+00   6.6980913e+03
 8.3780203e+00   7.1085403e+03
 8.3827000e+00   7.7104719e+03
 8.3873796e+00   8.2809391e+03
 8.3920603e+00   9.0737989e+03
 8.3967400e+00   9.9411008e+03
 8.4014196e+00   1.0680644e+04
 8.4061003e+00   1.1258129e+04
 8.4107800e+00   1.1142428e+04
 8.4154596e+00   1.0495559e+04
 8.4201403e+00   9.8648883e+03
 8.4248199e+00   8.8203181e+03
 8.4294996e+00   8.0139792e+03
 8.4341803e+00   7.3617487e+03
 8.4388599e+00   6.8812164e+03
 8.4435396e+00   6.5122652e+03
 8.4482203e+00   6.1702369e+03
 8.4528999e+00   5.9836689e+03
 8.4575796e+00   5.8416392e+03
 8.4622602e+00   5.7074765e+03
 8.4669399e+00   5.6339828e+03
 8.4716196e+00   5.5489194e+03
 8.4763002e+00   5.4995593e+03
 8.4809799e+00   5.4437719e+03
 8.4856596e+00   5.4088617e+03
 8.4903402e+00   5.3644713e+03
 8.4950199e+00   5.3521054e+03
 8.4996996e+00   5.3143662e+03
 8.5043802e+00   5.3134108e+03
 8.5090599e+00   5.2714383e+03
 8.5137396e+00   5.2719180e+03
 8.5184202e+00   5.2339039e+03
 8.5230999e+00   5.2534499e+03
 8.5277796e+00   5.2320132e+03
 8.5324602e+00   5.2207263e+03
 8.5371399e+00   5.2022173e+03
 8.5418196e+00   5.1888368e+03
 8.5465002e+00   5.1889058e+03
 8.5511799e+00   5.1815777e+03
 8.5558596e+00   5.1853685e+03
 8.5605402e+00   5.1598707e+03
 8.5652199e+00   5.1735671e+03
 8.5698996e+00   5.1265304e+03
 8.5745802e+00   5.1646038e+03
 8.5792599e+00   5.1372678e+03
 8.5839396e+00   5.1489785e+03
 8.5886202e+00   5.1213708e+03
 8.5932999e+00   5.1374949e+03
 8.5979795e+00   5.1201661e+03
 8.6026602e+00   5.1261578e+03
 8.6073399e+00   5.1139358e+03
 8.6120195e+00   5.1067357e+03
 8.6167002e+00   5.1061596e+03
 8.6213799e+00   5.0898382e+03
 8.6260595e+00   5.0991552e+03
 8.6307402e+00   5.0792300e+03
 8.6354198e+00   5.1004069e+03
 8.6400995e+00   5.0886613e+03
 8.6447802e+00   5.0995362e+03
 8.6494598e+00   5.0769127e+03
 8.6541405e+00   5.0861184e+03
 8.6588202e+00   5.0856840e+03
 8.6634998e+00   5.0750673e+03
 8.6681805e+00   5.0741979e+03
 8.6728601e+00   5.0762990e+03
 8.6775398e+00   5.0721702e+03
 8.6822205e+00   5.0649928e+03
 8.6869001e+00   5.0810604e+03
 8.6915798e+00   5.0555233e+03
 8.6962605e+00   5.0800136e+03
 8.7009401e+00   5.0704240e+03
 8.7056198e+00   5.0669264e+03
 8.7103004e+00   5.0562205e+03
 8.7149801e+00   5.0722623e+03
 8.7196598e+00   5.0682848e+03
 8.7243404e+00   5.0713266e+03
 8.7290201e+00   5.0703778e+03
 8.7336998e+00   5.0731602e+03
 8.7383804e+00   5.0810712e+03
 8.7430601e+00   5.1051734e+03
 8.7477398e+00   5.0772063e+03
 8.7524204e+00   5.1067463e+03
 8.7571001e+00   5.1055484e+03
 8.7617798e+00   5.1309649e+03
 8.7664604e+00   5.1581853e+03
 8.7711401e+00   5.1786755e+03
 8.7758198e+00   5.1880435e+03
 8.7805004e+00   5.2495322e+03
 8.7851801e+00   5.2714549e+03
 8.7898598e+00   5.3238133e+03
 8.7945404e+00   5.3953935e+03
 8.7992201e+00   5.4519310e+03
 8.8038998e+00   5.5482813e+03
 8.8085804e+00   5.6475857e+03
 8.8132601e+00   5.7733212e+03
 8.8179398e+00   5.9119489e+03
 8.8226204e+00   6.0713350e+03
 8.8273001e+00   6.2038224e+03
 8.8319798e+00   6.3985508e+03
 8.8366604e+00   6.5282461e+03
 8.8413401e+00   6.7482358e+03
 8.8460197e+00   6.9429268e+03
 8.8507004e+00   7.2464726e+03
 8.8553801e+00   7.3872240e+03
 8.8600597e+00   7.8114017e+03
 8.8647404e+00   7.5066551e+03
 8.8694201e+00   8.3629283e+03
 8.8740997e+00   8.2051206e+03
 8.8787804e+00   6.9844523e+03
 8.8834600e+00   7.6594153e+03
 8.8881397e+00   6.2509038e+03
 8.8928204e+00   5.9347913e+03
 8.8975000e+00   5.7269359e+03
 8.9021797e+00   5.4281657e+03
 8.9068604e+00   5.3422084e+03
 8.9115400e+00   5.2676369e+03
 8.9162197e+00   5.2025791e+03
 8.9209003e+00   5.1859169e+03
 8.9255800e+00   5.1635116e+03
 8.9302597e+00   5.1316038e+03
 8.9349403e+00   5.1334510e+03
 8.9396200e+00   5.1247847e+03
 8.9442997e+00   5.1483611e+03
 8.9489803e+00   5.1322676e+03
 8.9536600e+00   5.1532375e+03
 8.9583397e+00   5.1621709e+03
 8.9630203e+00   5.2024420e+03
 8.9677000e+00   5.2140934e+03
 8.9723797e+00   5.2672364e+03
 8.9770603e+00   5.2959290e+03
 8.9817400e+00   5.3350078e+03
 8.9864197e+00   5.3810139e+03
 8.9911003e+00   5.4362183e+03
 8.9957800e+00   5.4773465e+03
 9.0004597e+00   5.5199117e+03
 9.0051403e+00   5.5713805e+03
 9.0098200e+00   5.5818591e+03
 9.0144997e+00   5.6046713e+03
 9.0191803e+00   5.5939340e+03
 9.0238600e+00   5.5702133e+03
 9.0285397e+00   5.5236190e+03
 9.0332203e+00   5.4716449e+03
 9.0379000e+00   5.3994323e+03
 9.0425797e+00   5.3275609e+03
 9.0472603e+00   5.2627954e+03
 9.0519400e+00   5.2004668e+03
 9.0566196e+00   5.1395055e+03
 9.0613003e+00   5.0974615e+03
 9.0659800e+00   5.0538464e+03
 9.0706596e+00   5.0198951e+03
 9.0753403e+00   4.9889328e+03
 9.0800200e+00   4.9766484e+03
 9.0846996e+00   4.9524076e+03
 9.0893803e+00   4.9497691e+03
 9.0940599e+00   4.9261409e+03
 9.0987396e+00   4.9308424e+03
 9.1034203e+00   4.9231381e+03
 9.1080999e+00   4.9217152e+03
 9.1127796e+00   4.9082992e+03
 9.1174603e+00   4.9114606e+03
 9.1221399e+00   4.9090237e+03
 9.1268196e+00   4.9044237e+03
 9.1315002e+00   4.9112120e+03
 9.1361799e+00   4.8997161e+03
 9.1408596e+00   4.9178174e+03
 9.1455402e+00   4.9133201e+03
 9.1502199e+00   4.9098166e+03
 9.1548996e+00   4.9114523e+03
 9.1595802e+00   4.9231239e+03
 9.1642599e+00   4.9227977e+03
 9.1689396e+00   4.9408210e+03
 9.1736202e+00   4.9351650e+03
 9.1782999e+00   4.9613250e+03
 9.1829796e+00   4.9903846e+03
 9.1876602e+00   4.9776268e+03
 9.1923399e+00   5.0229801e+03
 9.1970196e+00   5.0400061e+03
 9.2017002e+00   5.0738697e+03
 9.2063799e+00   5.1273575e+03
 9.2110596e+00   5.1978977e+03
 9.2157402e+00   5.2642556e+03
 9.2204199e+00   5.3748932e+03
 9.2250996e+00   5.4901122e+03
 9.2297802e+00   5.6415121e+03
 9.2344599e+00   5.8101690e+03
 9.2391396e+00   6.0251991e+03
 9.2438202e+00   6.2221347e+03
 9.2484999e+00   6.4342043e+03
 9.2531796e+00   6.6164140e+03
 9.2578602e+00   6.7746697e+03
 9.2625399e+00   6.8791603e+03
 9.2672195e+00   6.9120228e+03
 9.2719002e+00   6.8865481e+03
 9.2765799e+00   6.7839919e+03
 9.2812595e+00   6.6500172e+03
 9.2859402e+00   6.4676679e+03
 9.2906199e+00   6.2920343e+03
 9.2952995e+00   6.0935237e+03
 9.2999802e+00   5.9128006e+03
 9.3046598e+00   5.7506111e+03
 9.3093395e+00   5.6139243e+03
 9.3140202e+00   5.5043254e+03
 9.3186998e+00   5.4000122e+03
 9.3233805e+00   5.3189558e+03
 9.3280602e+00   5.2768245e+03
 9.3327398e+00   5.2396498e+03
 9.3374205e+00   5.2183973e+03
 9.3421001e+00   5.2129183e+03
 9.3467798e+00   5.2091511e+03
 9.3514605e+00   5.2324822e+03
 9.3561401e+00   5.2529585e+03
 9.3608198e+00   5.2679759e+03
 9.3655005e+00   5.3016350e+03
 9.3701801e+00   5.3178723e+03
 9.3748598e+00   5.3298607e+03
 9.3795404e+00   5.3286757e+03
 9.3842201e+00   5.3276611e+03
 9.3888998e+00   5.3263046e+03
 9.3935804e+00   5.3303233e+03
 9.3982601e+00   5.3240274e+03
 9.4029398e+00   5.3078673e+03
 9.4076204e+00   5.3063550e+03
 9.4123001e+00   5.3262649e+03
 9.4169798e+00   5.3377527e+03
 9.4216604e+00   5.3779141e+03
 9.4263401e+00   5.4177063e+03
 9.4310198e+00   5.4869967e+03
 9.4357004e+00   5.5527158e+03
 9.4403801e+00   5.6654755e+03
 9.4450598e+00   5.7606554e+03
 9.4497404e+00   5.8878423e+03
 9.4544201e+00   6.0070869e+03
 9.4590998e+00   6.1156261e+03
 9.4637804e+00   6.2155153e+03
 9.4684601e+00   6.3109812e+03
 9.4731398e+00   6.3677389e+03
 9.4778204e+00   6.4160196e+03
 9.4825001e+00   6.4328595e+03
 9.4871798e+00   6.4291184e+03
 9.4918604e+00   6.3920584e+03
 9.4965401e+00   6.3272725e+03
 9.5012197e+00   6.2512299e+03
 9.5059004e+00   6.1306568e+03
 9.5105801e+00   6.0108237e+03
 9.5152597e+00   5.8873787e+03
 9.5199404e+00   5.7576646e+03
 9.5246201e+00   5.6392133e+03
 9.5292997e+00   5.5224844e+03
 9.5339804e+00   5.4165016e+03
 9.5386600e+00   5.3447442e+03
 9.5433397e+00   5.2741608e+03
 9.5480204e+00   5.2130427e+03
 9.5527000e+00   5.1679310e+03
 9.5573797e+00   5.1273150e+03
 9.5620604e+00   5.0906155e+03
 9.5667400e+00   5.0765264e+03
 9.5714197e+00   5.0463901e+03
 9.5761003e+00   5.0377151e+03
 9.5807800e+00   5.0069441e+03
 9.5854597e+00   5.0056531e+03
 9.5901403e+00   5.0014306e+03
 9.5948200e+00   4.9867811e+03
 9.5994997e+00   4.9882008e+03
 9.6041803e+00   4.9836786e+03
 9.6088600e+00   4.9896395e+03
 9.6135397e+00   4.9791087e+03
 9.6182203e+00   4.9742095e+03
 9.6229000e+00   4.9713396e+03
 9.6275797e+00   4.9803949e+03
 9.6322603e+00   4.9783464e+03
 9.6369400e+00   4.9809452e+03
 9.6416197e+00   4.9915907e+03
 9.6463003e+00   4.9810920e+03
 9.6509800e+00   4.9858752e+03
 9.6556597e+00   4.9932250e+03
 9.6603403e+00   5.0182071e+03
 9.6650200e+00   5.0177016e+03
 9.6696997e+00   5.0307274e+03
 9.6743803e+00   5.0453978e+03
 9.6790600e+00   5.1069697e+03
 9.6837397e+00   5.1231891e+03
 9.6884203e+00   5.2483199e+03
 9.6931000e+00   5.3570870e+03
 9.6977797e+00   5.4442811e+03
 9.7024603e+00   6.1794825e+03
 9.7071400e+00   6.3068425e+03
 9.7118196e+00   6.6829140e+03
 9.7165003e+00   6.5866981e+03
 9.7211800e+00   6.8346775e+03
 9.7258596e+00   6.0599639e+03
 9.7305403e+00   6.0585345e+03
 9.7352200e+00   5.5610562e+03
 9.7398996e+00   5.7101980e+03
 9.7445803e+00   5.3647945e+03
 9.7492599e+00   5.3745562e+03
 9.7539396e+00   5.3229215e+03
 9.7586203e+00   5.3517943e+03
 9.7632999e+00   5.4024947e+03
 9.7679796e+00   5.4714745e+03
 9.7726603e+00   5.5749626e+03
 9.7773399e+00   5.7079957e+03
 9.7820196e+00   5.8570270e+03
 9.7867002e+00   6.0504681e+03
 9.7913799e+00   6.2529892e+03
 9.7960596e+00   6.4708827e+03
 9.8007402e+00   6.6918478e+03
 9.8054199e+00   6.9104022e+03
 9.8100996e+00   7.1083945e+03
 9.8147802e+00   7.2793853e+03
 9.8194599e+00   7.4386630e+03
 9.8241396e+00   7.5607398e+03
 9.8288202e+00   7.6253015e+03
 9.8334999e+00   8.0284506e+03
 9.8381796e+00   8.4006996e+03
 9.8428602e+00   8.9720323e+03
 9.8475399e+00   9.7736782e+03
 9.8522196e+00   1.0429758e+04
 9.8569002e+00   1.1559791e+04
 9.8615799e+00   1.2014648e+04
 9.8662596e+00   1.2088412e+04
 9.8709402e+00   1.1325479e+04
 9.8756199e+00   1.0415858e+04
 9.8802996e+00   9.1378027e+03
 9.8849802e+00   7.9132377e+03
 9.8896599e+00   7.1211726e+03
 9.8943396e+00   6.6258206e+03
 9.8990202e+00   6.1623969e+03
 9.9036999e+00   5.8002197e+03
 9.9083796e+00   5.5760443e+03
 9.9130602e+00   5.4281988e+03
 9.9177399e+00   5.3427976e+03
 9.9224195e+00   5.2858268e+03
 9.9271002e+00   5.2363622e+03
 9.9317799e+00   5.1900128e+03
 9.9364595e+00   5.1816293e+03
 9.9411402e+00   5.1618522e+03
 9.9458199e+00   5.1283715e+03
 9.9504995e+00   5.1321915e+03
 9.9551802e+00   5.1160280e+03
 9.9598598e+00   5.1205488e+03
 9.9645395e+00   5.1146855e+03
 9.9692202e+00   5.1028335e+03
 9.9738998e+00   5.0924454e+03
 9.9785805e+00   5.0965159e+03
 9.9832602e+00   5.0972616e+03
 9.9879398e+00   5.1043132e+03
 9.9926205e+00   5.1015380e+03
 9.9973001e+00   5.1028969e+03
 1.0001980e+01   5.0986558e+03
 1.0006660e+01   5.1134264e+03
 1.0011340e+01   5.1021825e+03
 1.0016020e+01   5.1097739e+03
 1.0020700e+01   5.1155601e+03
 1.0025380e+01   5.1037516e+03
 1.0030060e+01   5.1028538e+03
 1.0034740e+01   5.1115602e+03
 1.0039420e+01   5.1160896e+03
 1.0044100e+01   5.1310598e+03
 1.0048780e+01   5.1477830e+03
 1.0053460e+01   5.1621303e+03
 1.0058140e+01   5.1762214e+03
 1.0062820e+01   5.1848892e+03
 1.0067500e+01   5.2064274e+03
 1.0072180e+01   5.2077907e+03
 1.0076860e+01   5.2272871e+03
 1.0081540e+01   5.2067519e+03
 1.0086220e+01   5.2114146e+03
 1.0090900e+01   5.2058085e+03
 1.0095580e+01   5.1970365e+03
 1.0100260e+01   5.1703811e+03
 1.0104940e+01   5.1671977e+03
 1.0109620e+01   5.1589063e+03
 1.0114300e+01   5.1375695e+03
 1.0118980e+01   5.1388179e+03
 1.0123660e+01   5.1198145e+03
 1.0128340e+01   5.1066448e+03
 1.0133020e+01   5.0929583e+03
 1.0137700e+01   5.0969277e+03
 1.0142380e+01   5.0917172e+03
 1.0147060e+01   5.0951301e+03
 1.0151740e+01   5.0798071e+03
 1.0156420e+01   5.0763808e+03
 1.0161100e+01   5.0708123e+03
 1.0165780e+01   5.0759708e+03
 1.0170460e+01   5.0771916e+03
 1.0175140e+01   5.0742020e+03
 1.0179820e+01   5.0699454e+03
 1.0184500e+01   5.0761657e+03
 1.0189180e+01   5.0591095e+03
 1.0193860e+01   5.0898868e+03
 1.0198540e+01   5.0746426e+03
 1.0203220e+01   5.0710014e+03
 1.0207900e+01   5.0951697e+03
 1.0212580e+01   5.0741054e+03
 1.0217260e+01   5.1011619e+03
 1.0221940e+01   5.0813339e+03
 1.0226620e+01   5.0926058e+03
 1.0231300e+01   5.1172864e+03
 1.0235980e+01   5.1081921e+03
 1.0240660e+01   5.1145997e+03
 1.0245340e+01   5.1202560e+03
 1.0250020e+01   5.1399833e+03
 1.0254700e+01   5.1804772e+03
 1.0259380e+01   5.2134684e+03
 1.0264060e+01   5.2936124e+03
 1.0268740e+01   5.4218051e+03
 1.0273420e+01   5.4574969e+03
 1.0278100e+01   5.4104007e+03
 1.0282780e+01   5.3823482e+03
 1.0287460e+01   5.5206677e+03
 1.0292140e+01   5.6641496e+03
 1.0296820e+01   5.7264371e+03
 1.0301500e+01   5.8214766e+03
 1.0306180e+01   5.8674456e+03
 1.0310860e+01   5.7975916e+03
 1.0315540e+01   5.7269960e+03
 1.0320220e+01   5.6086310e+03
 1.0324900e+01   5.6947101e+03
 1.0329580e+01   5.8011987e+03
 1.0334260e+01   5.5718088e+03
 1.0338940e+01   5.3808008e+03
 1.0343620e+01   5.3311001e+03
 1.0348300e+01   5.2465458e+03
 1.0352980e+01   5.1992599e+03
 1.0357660e+01   5.1682267e+03
 1.0362340e+01   5.1333830e+03
 1.0367020e+01   5.1606104e+03
 1.0371700e+01   5.1161499e+03
 1.0376380e+01   5.1260857e+03
 1.0381060e+01   5.1415977e+03
 1.0385740e+01   5.1190128e+03
 1.0390420e+01   5.1410788e+03
 1.0395100e+01   5.1129101e+03
 1.0399780e+01   5.1053410e+03
 1.0404460e+01   5.1416340e+03
 1.0409140e+01   5.1137074e+03
 1.0413820e+01   5.1172881e+03
 1.0418500e+01   5.1342103e+03
 1.0423180e+01   5.1156712e+03
 1.0427860e+01   5.1437760e+03
 1.0432540e+01   5.1069660e+03
 1.0437220e+01   5.1137016e+03
 1.0441900e+01   5.1649468e+03
 1.0446580e+01   5.1424901e+03
 1.0451260e+01   5.1431398e+03
 1.0455940e+01   5.1740298e+03
 1.0460620e+01   5.1880942e+03
 1.0465300e+01   5.2286281e+03
 1.0469980e+01   5.2563243e+03
 1.0474660e+01   5.4275113e+03
 1.0479340e+01   5.4043273e+03
 1.0484020e+01   5.6428616e+03
 1.0488700e+01   5.6803304e+03
 1.0493380e+01   5.9228137e+03
 1.0498060e+01   6.0437776e+03
 1.0502740e+01   5.8885360e+03
 1.0507420e+01   5.9127248e+03
 1.0512100e+01   5.7369381e+03
 1.0516780e+01   5.6079635e+03
 1.0521460e+01   5.5117185e+03
 1.0526140e+01   5.3663146e+03
 1.0530820e+01   5.3652560e+03
 1.0535500e+01   5.2799991e+03
 1.0540180e+01   5.2850161e+03
 1.0544860e+01   5.2349503e+03
 1.0549540e+01   5.2081391e+03
 1.0554220e+01   5.2456521e+03
 1.0558900e+01   5.1866092e+03
 1.0563580e+01   5.1982255e+03
 1.0568260e+01   5.1725824e+03
 1.0572940e+01   5.1420223e+03
 1.0577620e+01   5.1461692e+03
 1.0582300e+01   5.1044239e+03
 1.0586980e+01   5.0993853e+03
 1.0591660e+01   5.0983361e+03
 1.0596340e+01   5.0620321e+03
 1.0601020e+01   5.0520535e+03
 1.0605700e+01   5.0442385e+03
 1.0610380e+01   5.0319666e+03
 1.0615060e+01   5.0394904e+03
 1.0619740e+01   5.0282756e+03
 1.0624420e+01   5.0089236e+03
 1.0629100e+01   5.0369942e+03
 1.0633780e+01   4.9992685e+03
 1.0638460e+01   5.0172020e+03
 1.0643140e+01   5.0029164e+03
 1.0647820e+01   4.9978844e+03
 1.0652500e+01   5.0052464e+03
 1.0657180e+01   5.0055770e+03
 1.0661860e+01   5.0034929e+03
 1.0666540e+01   5.0190902e+03
 1.0671220e+01   5.0220665e+03
 1.0675900e+01   5.0398158e+03
 1.0680580e+01   5.0538249e+03
 1.0685260e+01   5.0653680e+03
 1.0689940e+01   5.1183124e+03
 1.0694620e+01   5.1289202e+03
 1.0699300e+01   5.1773455e+03
 1.0703980e+01   5.2115804e+03
 1.0708660e+01   5.2540580e+03
 1.0713340e+01   5.2914494e+03
 1.0718020e+01   5.3319193e+03
 1.0722700e+01   5.3473830e+03
 1.0727380e+01   5.3871657e+03
 1.0732060e+01   5.3685094e+03
 1.0736740e+01   5.3715400e+03
 1.0741420e+01   5.3414172e+03
 1.0746100e+01   5.3231424e+03
 1.0750780e+01   5.2845768e+03
 1.0755460e+01   5.2346902e+03
 1.0760140e+01   5.1821737e+03
 1.0764820e+01   5.1520665e+03
 1.0769500e+01   5.1061578e+03
 1.0774180e+01   5.0701154e+03
 1.0778860e+01   5.0419019e+03
 1.0783540e+01   5.0002490e+03
 1.0788220e+01   4.9981056e+03
 1.0792900e+01   4.9589220e+03
 1.0797580e+01   4.9554791e+03
 1.0802260e+01   4.9456575e+03
 1.0806940e+01   4.9191875e+03
 1.0811620e+01   4.9278790e+03
 1.0816300e+01   4.9066106e+03
 1.0820980e+01   4.9042254e+03
 1.0825660e+01   4.8961072e+03
 1.0830340e+01   4.8962435e+03
 1.0835020e+01   4.8851471e+03
 1.0839700e+01   4.8850372e+03
 1.0844380e+01   4.8832757e+03
 1.0849060e+01   4.8726477e+03
 1.0853740e+01   4.8564720e+03
 1.0858420e+01   4.8574829e+03
 1.0863100e+01   4.8576506e+03
 1.0867780e+01   4.8463715e+03
 1.0872460e+01   4.8400449e+03
 1.0877140e+01   4.8306031e+03
 1.0881820e+01   4.8194453e+03
 1.0886500e+01   4.8181648e+03
 1.0891180e+01   4.8039843e+03
 1.0895860e+01   4.7996842e+03
 1.0900540e+01   4.7922570e+03
 1.0905220e+01   4.7867149e+03
 1.0909900e+01   4.7839397e+03
 1.0914580e+01   4.7785619e+03
 1.0919260e+01   4.7738305e+03
 1.0923940e+01   4.7605444e+03
 1.0928620e+01   4.7628193e+03
 1.0933300e+01   4.7628810e+03
 1.0937980e+01   4.7619199e+03
 1.0942660e+01   4.7477915e+03
 1.0947340e+01   4.7549778e+03
 1.0952020e+01   4.7497101e+03
 1.0956700e+01   4.7473888e+03
 1.0961380e+01   4.7592521e+03
 1.0966060e+01   4.7365092e+03
 1.0970740e+01   4.7525305e+03
 1.0975420e+01   4.7357908e+03
 1.0980100e+01   4.7428752e+03
 1.0984780e+01   4.7402381e+03
 1.0989460e+01   4.7421723e+03
 1.0994140e+01   4.7340611e+03
 1.0998820e+01   4.7402718e+03
 1.1003500e+01   4.7345853e+03
 1.1008180e+01   4.7480752e+03
 1.1012860e+01   4.7431975e+03
 1.1017540e+01   4.7452830e+03
 1.1022220e+01   4.7570956e+03
 1.1026900e+01   4.7492775e+03
 1.1031580e+01   4.7693666e+03
 1.1036260e+01   4.7657543e+03
 1.1040940e+01   4.7765773e+03
 1.1045620e+01   4.8014954e+03
 1.1050300e+01   4.8078490e+03
 1.1054980e+01   4.8301061e+03
 1.1059660e+01   4.8660207e+03
 1.1064340e+01   4.8880991e+03
 1.1069020e+01   4.9261342e+03
 1.1073700e+01   4.9895822e+03
 1.1078380e+01   5.0444116e+03
 1.1083060e+01   5.1231184e+03
 1.1087740e+01   5.2045828e+03
 1.1092420e+01   5.2953393e+03
 1.1097100e+01   5.4086395e+03
 1.1101780e+01   5.4953053e+03
 1.1106460e+01   5.5804873e+03
 1.1111140e+01   5.6636501e+03
 1.1115820e+01   5.7144006e+03
 1.1120500e+01   5.7385029e+03
 1.1125180e+01   5.7240309e+03
 1.1129860e+01   5.6732573e+03
 1.1134540e+01   5.6170731e+03
 1.1139220e+01   5.5304980e+03
 1.1143900e+01   5.4432706e+03
 1.1148580e+01   5.3394630e+03
 1.1153260e+01   5.2464410e+03
 1.1157940e+01   5.1549261e+03
 1.1162620e+01   5.0713454e+03
 1.1167300e+01   5.0005631e+03
 1.1171980e+01   4.9524991e+03
 1.1176660e+01   4.8836917e+03
 1.1181340e+01   4.8650696e+03
 1.1186020e+01   4.8085346e+03
 1.1190700e+01   4.7879393e+03
 1.1195380e+01   4.7922593e+03
 1.1200060e+01   4.7352020e+03
 1.1204740e+01   4.7354799e+03
 1.1209420e+01   4.8494962e+03
 1.1214100e+01   4.7308271e+03
 1.1218780e+01   5.0357969e+03
 1.1223460e+01   4.7516880e+03
 1.1228140e+01   4.7331230e+03
 1.1232820e+01   4.8899716e+03
 1.1237500e+01   4.7378360e+03
 1.1242180e+01   4.7430432e+03
 1.1246860e+01   4.7465942e+03
 1.1251540e+01   4.7243740e+03
 1.1256220e+01   4.7377595e+03
 1.1260900e+01   4.7147173e+03
 1.1265580e+01   4.7155485e+03
 1.1270260e+01   4.7154669e+03
 1.1274940e+01   4.6918225e+03
 1.1279620e+01   4.7035481e+03
 1.1284300e+01   4.6889282e+03
 1.1288980e+01   4.6851825e+03
 1.1293660e+01   4.6769987e+03
 1.1298340e+01   4.6546502e+03
 1.1303020e+01   4.6513577e+03
 1.1307700e+01   4.6268810e+03
 1.1312380e+01   4.6198609e+03
 1.1317060e+01   4.6153182e+03
 1.1321740e+01   4.5845757e+03
 1.1326420e+01   4.5741702e+03
 1.1331100e+01   4.5682306e+03
 1.1335780e+01   4.5524748e+03
 1.1340460e+01   4.5439333e+03
 1.1345140e+01   4.5497260e+03
 1.1349820e+01   4.5295846e+03
 1.1354500e+01   4.5456703e+03
 1.1359180e+01   4.5275116e+03
 1.1363860e+01   4.5332549e+03
 1.1368540e+01   4.5288273e+03
 1.1373220e+01   4.5275999e+03
 1.1377900e+01   4.5318281e+03
 1.1382580e+01   4.5256374e+03
 1.1387260e+01   4.5201624e+03
 1.1391940e+01   4.5306232e+03
 1.1396620e+01   4.5215911e+03
 1.1401300e+01   4.5266878e+03
 1.1405980e+01   4.5326779e+03
 1.1410660e+01   4.5249437e+03
 1.1415340e+01   4.5308739e+03
 1.1420020e+01   4.5298014e+03
 1.1424700e+01   4.5391767e+03
 1.1429380e+01   4.5610368e+03
 1.1434060e+01   4.5539350e+03
 1.1438740e+01   4.5807966e+03
 1.1443420e+01   4.5806012e+03
 1.1448100e+01   4.5874243e+03
 1.1452780e+01   4.6218012e+03
 1.1457460e+01   4.6170998e+03
 1.1462140e+01   4.6391554e+03
 1.1466820e+01   4.6815370e+03
 1.1471500e+01   4.6914378e+03
 1.1476180e+01   4.7418003e+03
 1.1480860e+01   4.7607139e+03
 1.1485540e+01   4.7950520e+03
 1.1490220e+01   4.8488034e+03
 1.1494900e+01   4.8765183e+03
 1.1499580e+01   4.9238129e+03
 1.1504260e+01   4.9543608e+03
 1.1508940e+01   4.9793680e+03
 1.1513620e+01   4.9949513e+03
 1.1518300e+01   4.9997206e+03
 1.1522980e+01   4.9906043e+03
 1.1527660e+01   4.9757724e+03
 1.1532340e+01   4.9345901e+03
 1.1537020e+01   4.9048336e+03
 1.1541700e+01   4.8547137e+03
 1.1546380e+01   4.7987022e+03
 1.1551060e+01   4.7525445e+03
 1.1555740e+01   4.6984923e+03
 1.1560420e+01   4.6658857e+03
 1.1565100e+01   4.6162634e+03
 1.1569780e+01   4.5799390e+03
 1.1574460e+01   4.5589883e+03
 1.1579140e+01   4.5248198e+03
 1.1583820e+01   4.4972427e+03
 1.1588500e+01   4.4884444e+03
 1.1593180e+01   4.4658186e+03
 1.1597860e+01   4.4714995e+03
 1.1602540e+01   4.4564879e+03
 1.1607220e+01   4.4484168e+03
 1.1611900e+01   4.4392231e+03
 1.1616580e+01   4.4258429e+03
 1.1621260e+01   4.4393142e+03
 1.1625940e+01   4.4146816e+03
 1.1630620e+01   4.4250444e+03
 1.1635300e+01   4.4207707e+03
 1.1639980e+01   4.4069752e+03
 1.1644660e+01   4.4029979e+03
 1.1649340e+01   4.4034138e+03
 1.1654020e+01   4.3847359e+03
 1.1658700e+01   4.3845315e+03
 1.1663380e+01   4.3806233e+03
 1.1668060e+01   4.3680784e+03
 1.1672740e+01   4.3667125e+03
 1.1677420e+01   4.3649657e+03
 1.1682100e+01   4.3593511e+03
 1.1686780e+01   4.3476304e+03
 1.1691460e+01   4.3447014e+03
 1.1696140e+01   4.3533766e+03
 1.1700820e+01   4.3438135e+03
 1.1705500e+01   4.3494739e+03
 1.1710180e+01   4.3390908e+03
 1.1714860e+01   4.3360037e+03
 1.1719540e+01   4.3334875e+03
 1.1724220e+01   4.3374096e+03
 1.1728900e+01   4.3261417e+03
 1.1733580e+01   4.3234209e+03
 1.1738260e+01   4.3251341e+03
 1.1742940e+01   4.3222871e+03
 1.1747620e+01   4.3215188e+03
 1.1752300e+01   4.3136790e+03
 1.1756980e+01   4.3131965e+03
 1.1761660e+01   4.3216924e+03
 1.1766340e+01   4.3063083e+03
 1.1771020e+01   4.3156755e+03
 1.1775700e+01   4.3054786e+03
 1.1780380e+01   4.3073127e+03
 1.1785060e+01   4.3041090e+03
 1.1789740e+01   4.3054510e+03
 1.1794420e+01   4.3110893e+03
 1.1799100e+01   4.2997045e+03
 1.1803780e+01   4.3043235e+03
 1.1808460e+01   4.3019985e+03
 1.1813140e+01   4.2915244e+03
 1.1817820e+01   4.2958924e+03
 1.1822500e+01   4.2987525e+03
 1.1827180e+01   4.2920115e+03
 1.1831860e+01   4.2962421e+03
 1.1836540e+01   4.2929489e+03
 1.1841220e+01   4.2993892e+03
 1.1845900e+01   4.2961528e+03
 1.1850580e+01   4.2940202e+03
 1.1855260e+01   4.3113240e+03
 1.1859940e+01   4.3108721e+03
 1.1864620e+01   4.3303691e+03
 1.1869300e+01   4.3414391e+03
 1.1873980e+01   4.3682204e+03
 1.1878660e+01   4.3886123e+03
 1.1883340e+01   4.3907362e+03
 1.1888020e+01   4.4328000e+03
 1.1892700e+01   4.4763442e+03
 1.1897380e+01   4.5286743e+03
 1.1902060e+01   4.5541013e+03
 1.1906740e+01   4.5602639e+03
 1.1911420e+01   4.6388612e+03
 1.1916100e+01   4.5284889e+03
 1.1920780e+01   4.4906671e+03
 1.1925460e+01   4.5429300e+03
 1.1930140e+01   4.4203321e+03
 1.1934820e+01   4.4437733e+03
 1.1939500e+01   4.4188342e+03
 1.1944180e+01   4.3855054e+03
 1.1948860e+01   4.3948019e+03
 1.1953540e+01   4.3965077e+03
 1.1958220e+01   4.4108418e+03
 1.1962900e+01   4.4154422e+03
 1.1967580e+01   4.4540628e+03
 1.1972260e+01   4.4744649e+03
 1.1976940e+01   4.5242595e+03
 1.1981620e+01   4.5446735e+03
 1.1986300e+01   4.5790334e+03
 1.1990980e+01   4.6174596e+03
 1.1995660e+01   4.6338454e+03
 1.2000340e+01   4.6560587e+03
 1.2005020e+01   4.6473606e+03
 1.2009700e+01   4.6516405e+03
 1.2014380e+01   4.6280892e+03
 1.2019060e+01   4.6110297e+03
 1.2023740e+01   4.5764813e+03
 1.2028420e+01   4.5496055e+03
 1.2033100e+01   4.5140850e+03
 1.2037780e+01   4.5059214e+03
 1.2042460e+01   4.4841538e+03
 1.2047140e+01   4.4596664e+03
 1.2051820e+01   4.4661305e+03
 1.2056500e+01   4.4578788e+03
 1.2061180e+01   4.4730940e+03
 1.2065860e+01   4.4888687e+03
 1.2070540e+01   4.5185056e+03
 1.2075220e+01   4.5456594e+03
 1.2079900e+01   4.6036016e+03
 1.2084580e+01   4.6540613e+03
 1.2089260e+01   4.7294004e+03
 1.2093940e+01   4.7973233e+03
 1.2098620e+01   4.8829452e+03
 1.2103300e+01   4.9695600e+03
 1.2107980e+01   5.0585311e+03
 1.2112660e+01   5.1489123e+03
 1.2117340e+01   5.2076138e+03
 1.2122020e+01   5.2590657e+03
 1.2126700e+01   5.2658781e+03
 1.2131380e+01   5.2400771e+03
 1.2136060e+01   5.2067414e+03
 1.2140740e+01   5.1566678e+03
 1.2145420e+01   5.0697114e+03
 1.2150100e+01   4.9835872e+03
 1.2154780e+01   4.8756309e+03
 1.2159460e+01   4.7961827e+03
 1.2164140e+01   4.6915959e+03
 1.2168820e+01   4.6028183e+03
 1.2173500e+01   4.5261193e+03
 1.2178180e+01   4.4636348e+03
 1.2182860e+01   4.4085145e+03
 1.2187540e+01   4.3612265e+03
 1.2192220e+01   4.3226968e+03
 1.2196900e+01   4.2776695e+03
 1.2201580e+01   4.2612866e+03
 1.2206260e+01   4.2252757e+03
 1.2210940e+01   4.2131639e+03
 1.2215620e+01   4.1870953e+03
 1.2220300e+01   4.1781972e+03
 1.2224980e+01   4.1657225e+03
 1.2229660e+01   4.1510356e+03
 1.2234340e+01   4.1452731e+03
 1.2239020e+01   4.1379559e+03
 1.2243700e+01   4.1336986e+03
 1.2248380e+01   4.1151527e+03
 1.2253060e+01   4.1192640e+03
 1.2257740e+01   4.1072218e+03
 1.2262420e+01   4.1069200e+03
 1.2267100e+01   4.0897984e+03
 1.2271780e+01   4.0979820e+03
 1.2276460e+01   4.0882448e+03
 1.2281140e+01   4.0890949e+03
 1.2285820e+01   4.0932544e+03
 1.2290500e+01   4.0898341e+03
 1.2295180e+01   4.0722838e+03
 1.2299860e+01   4.0794271e+03
 1.2304540e+01   4.0771190e+03
 1.2309220e+01   4.0891415e+03
 1.2313900e+01   4.0823615e+03
 1.2318580e+01   4.0781722e+03
 1.2323260e+01   4.0910289e+03
 1.2327940e+01   4.0821482e+03
 1.2332620e+01   4.0964668e+03
 1.2337300e+01   4.1075709e+03
 1.2341980e+01   4.1074486e+03
 1.2346660e+01   4.1341921e+03
 1.2351340e+01   4.1387676e+03
 1.2356020e+01   4.1573862e+03
 1.2360700e+01   4.1727115e+03
 1.2365380e+01   4.1908460e+03
 1.2370060e+01   4.2139981e+03
 1.2374740e+01   4.2462345e+03
 1.2379420e+01   4.2708763e+03
 1.2384100e+01   4.2845413e+03
 1.2388780e+01   4.3010963e+03
 1.2393460e+01   4.3276257e+03
 1.2398140e+01   4.3431600e+03
 1.2402820e+01   4.3547740e+03
 1.2407500e+01   4.3816849e+03
 1.2412180e+01   4.3802644e+03
 1.2416860e+01   4.4081966e+03
 1.2421540e+01   4.4238259e+03
 1.2426220e+01   4.4426040e+03
 1.2430900e+01   4.4634108e+03
 1.2435580e+01   4.4957931e+03
 1.2440260e+01   4.5392340e+03
 1.2444940e+01   4.5692726e+03
 1.2449620e+01   4.6091916e+03
 1.2454300e+01   4.6318348e+03
 1.2458980e+01   4.6683491e+03
 1.2463660e+01   4.6894624e+03
 1.2468340e+01   4.7133620e+03
 1.2473020e+01   4.7197009e+03
 1.2477700e+01   4.7177127e+03
 1.2482380e+01   4.7073681e+03
 1.2487060e+01   4.6880847e+03
 1.2491740e+01   4.6577802e+03
 1.2496420e+01   4.6184713e+03
 1.2501100e+01   4.5720179e+03
 1.2505780e+01   4.5325963e+03
 1.2510460e+01   4.4701441e+03
 1.2515140e+01   4.4284650e+03
 1.2519820e+01   4.3687915e+03
 1.2524500e+01   4.3198059e+03
 1.2529180e+01   4.2761766e+03
 1.2533860e+01   4.2341088e+03
 1.2538540e+01   4.2034671e+03
 1.2543220e+01   4.1769526e+03
 1.2547900e+01   4.1628717e+03
 1.2552580e+01   4.1372583e+03
 1.2557260e+01   4.1115789e+03
 1.2561940e+01   4.1221084e+03
 1.2566620e+01   4.0887072e+03
 1.2571300e+01   4.0949052e+03
 1.2575980e+01   4.0647856e+03
 1.2580660e+01   4.0397262e+03
 1.2585340e+01   4.0412847e+03
 1.2590020e+01   4.0234300e+03
 1.2594700e+01   4.0116670e+03
 1.2599380e+01   4.0080481e+03
 1.2604060e+01   4.0036156e+03
 1.2608740e+01   4.0087524e+03
 1.2613420e+01   3.9862225e+03
 1.2618100e+01   3.9993228e+03
 1.2622780e+01   3.9921065e+03
 1.2627460e+01   3.9902595e+03
 1.2632140e+01   3.9991147e+03
 1.2636820e+01   4.0052598e+03
 1.2641500e+01   4.0133624e+03
 1.2646180e+01   4.0188644e+03
 1.2650860e+01   4.0303076e+03
 1.2655540e+01   4.0489912e+03
 1.2660220e+01   4.0705030e+03
 1.2664900e+01   4.0734940e+03
 1.2669580e+01   4.1097007e+03
 1.2674260e+01   4.1387044e+03
 1.2678940e+01   4.1848944e+03
 1.2683620e+01   4.2287773e+03
 1.2688300e+01   4.2756001e+03
 1.2692980e+01   4.3512378e+03
 1.2697660e+01   4.4128840e+03
