MA2b-00006.tif Azm= 0.00
2-Theta Angle (Degrees)
Intensity
       2500
 1.0023400e+00   7.9678715e+03
 1.0070200e+00   7.9210604e+03
 1.0117000e+00   7.8880350e+03
 1.0163800e+00   7.8620613e+03
 1.0210600e+00   7.8203220e+03
 1.0257400e+00   7.7811444e+03
 1.0304199e+00   7.7775666e+03
 1.0351000e+00   7.7189377e+03
 1.0397800e+00   7.7356874e+03
 1.0444601e+00   7.6914123e+03
 1.0491400e+00   7.6169926e+03
 1.0538200e+00   7.6938230e+03
 1.0585001e+00   7.5977740e+03
 1.0631800e+00   7.6036410e+03
 1.0678600e+00   7.5883590e+03
 1.0725400e+00   7.5691172e+03
 1.0772200e+00   7.5181509e+03
 1.0819000e+00   7.5389386e+03
 1.0865800e+00   7.4670672e+03
 1.0912600e+00   7.5076301e+03
 1.0959400e+00   7.4609387e+03
 1.1006200e+00   7.4587342e+03
 1.1052999e+00   7.4520582e+03
 1.1099800e+00   7.3988090e+03
 1.1146600e+00   7.4102623e+03
 1.1193399e+00   7.3983467e+03
 1.1240200e+00   7.3614104e+03
 1.1287000e+00   7.3382591e+03
 1.1333801e+00   7.3763585e+03
 1.1380600e+00   7.2884206e+03
 1.1427400e+00   7.3261778e+03
 1.1474200e+00   7.2790672e+03
 1.1521000e+00   7.2876143e+03
 1.1567800e+00   7.2663790e+03
 1.1614600e+00   7.2531171e+03
 1.1661400e+00   7.1964156e+03
 1.1708200e+00   7.2193272e+03
 1.1755000e+00   7.2170503e+03
 1.1801800e+00   7.1984205e+03
 1.1848600e+00   7.2128165e+03
 1.1895400e+00   7.1832828e+03
 1.1942199e+00   7.1685746e+03
 1.1989000e+00   7.1574219e+03
 1.2035800e+00   7.1535626e+03
 1.2082601e+00   7.1437472e+03
 1.2129400e+00   7.1396140e+03
 1.2176200e+00   7.1615521e+03
 1.2223001e+00   7.1436798e+03
 1.2269800e+00   7.1447784e+03
 1.2316600e+00   7.0943162e+03
 1.2363400e+00   7.1145979e+03
 1.2410200e+00   7.1253574e+03
 1.2457000e+00   7.1236251e+03
 1.2503800e+00   7.1051597e+03
 1.2550600e+00   7.1169203e+03
 1.2597400e+00   7.1188470e+03
 1.2644200e+00   7.1221914e+03
 1.2691000e+00   7.0891521e+03
 1.2737800e+00   7.1129312e+03
 1.2784600e+00   7.1025493e+03
 1.2831399e+00   7.1025046e+03
 1.2878200e+00   7.1219824e+03
 1.2925000e+00   7.0791074e+03
 1.2971801e+00   7.1165919e+03
 1.3018600e+00   7.1294979e+03
 1.3065400e+00   7.1239139e+03
 1.3112200e+00   7.1139181e+03
 1.3159000e+00   7.1223740e+03
 1.3205800e+00   7.1329932e+03
 1.3252600e+00   7.1314563e+03
 1.3299400e+00   7.1143682e+03
 1.3346200e+00   7.1593440e+03
 1.3393000e+00   7.1642286e+03
 1.3439800e+00   7.1336364e+03
 1.3486600e+00   7.1613135e+03
 1.3533400e+00   7.1512284e+03
 1.3580199e+00   7.1680873e+03
 1.3627000e+00   7.1918167e+03
 1.3673800e+00   7.1792235e+03
 1.3720599e+00   7.1917537e+03
 1.3767400e+00   7.2106029e+03
 1.3814200e+00   7.2000115e+03
 1.3861001e+00   7.2174802e+03
 1.3907800e+00   7.2109753e+03
 1.3954600e+00   7.2623600e+03
 1.4001400e+00   7.2441310e+03
 1.4048200e+00   7.3032758e+03
 1.4095000e+00   7.3033129e+03
 1.4141800e+00   7.3203307e+03
 1.4188600e+00   7.3389554e+03
 1.4235400e+00   7.3331583e+03
 1.4282200e+00   7.3586458e+03
 1.4329000e+00   7.3904183e+03
 1.4375800e+00   7.3882839e+03
 1.4422600e+00   7.4102066e+03
 1.4469399e+00   7.4338101e+03
 1.4516200e+00   7.4780682e+03
 1.4563000e+00   7.4976256e+03
 1.4609801e+00   7.5131229e+03
 1.4656600e+00   7.5489337e+03
 1.4703400e+00   7.5687502e+03
 1.4750201e+00   7.6043692e+03
 1.4797000e+00   7.6361017e+03
 1.4843800e+00   7.6522420e+03
 1.4890600e+00   7.6577735e+03
 1.4937400e+00   7.6679729e+03
 1.4984200e+00   7.6808716e+03
 1.5031000e+00   7.7154859e+03
 1.5077800e+00   7.7193426e+03
 1.5124600e+00   7.7445749e+03
 1.5171400e+00   7.7678919e+03
 1.5218199e+00   7.7796178e+03
 1.5265000e+00   7.7544034e+03
 1.5311800e+00   7.7770381e+03
 1.5358599e+00   7.7418746e+03
 1.5405400e+00   7.7710621e+03
 1.5452200e+00   7.7329575e+03
 1.5499001e+00   7.7810462e+03
 1.5545800e+00   7.7162511e+03
 1.5592600e+00   7.7326474e+03
 1.5639400e+00   7.7291409e+03
 1.5686200e+00   7.7514972e+03
 1.5733000e+00   7.6936565e+03
 1.5779800e+00   7.7156484e+03
 1.5826600e+00   7.7043532e+03
 1.5873400e+00   7.6874431e+03
 1.5920200e+00   7.6739736e+03
 1.5967000e+00   7.6673447e+03
 1.6013800e+00   7.6671078e+03
 1.6060600e+00   7.7062531e+03
 1.6107399e+00   7.6635309e+03
 1.6154200e+00   7.6858028e+03
 1.6201000e+00   7.6695562e+03
 1.6247801e+00   7.6703080e+03
 1.6294600e+00   7.6819036e+03
 1.6341400e+00   7.6724452e+03
 1.6388201e+00   7.6848438e+03
 1.6435000e+00   7.6907990e+03
 1.6481800e+00   7.6588388e+03
 1.6528600e+00   7.6699883e+03
 1.6575400e+00   7.7009582e+03
 1.6622200e+00   7.6967127e+03
 1.6669000e+00   7.6807983e+03
 1.6715800e+00   7.6956234e+03
 1.6762600e+00   7.6562362e+03
 1.6809400e+00   7.6934290e+03
 1.6856200e+00   7.6967188e+03
 1.6903000e+00   7.6989022e+03
 1.6949800e+00   7.7471379e+03
 1.6996599e+00   7.6976470e+03
 1.7043400e+00   7.7360927e+03
 1.7090200e+00   7.7207394e+03
 1.7137001e+00   7.7339845e+03
 1.7183800e+00   7.7373429e+03
 1.7230600e+00   7.7408409e+03
 1.7277400e+00   7.7247709e+03
 1.7324200e+00   7.7532967e+03
 1.7371000e+00   7.7505676e+03
 1.7417800e+00   7.7479523e+03
 1.7464600e+00   7.7535548e+03
 1.7511400e+00   7.7792078e+03
 1.7558200e+00   7.7770632e+03
 1.7605000e+00   7.7844381e+03
 1.7651800e+00   7.7718547e+03
 1.7698600e+00   7.8182895e+03
 1.7745399e+00   7.7960706e+03
 1.7792200e+00   7.8162539e+03
 1.7839000e+00   7.8404328e+03
 1.7885799e+00   7.8383207e+03
 1.7932600e+00   7.8444169e+03
 1.7979400e+00   7.8628463e+03
 1.8026201e+00   7.8688594e+03
 1.8073000e+00   7.8814855e+03
 1.8119800e+00   7.9034183e+03
 1.8166600e+00   7.8984858e+03
 1.8213400e+00   7.9194736e+03
 1.8260200e+00   7.9425063e+03
 1.8307000e+00   7.9655227e+03
 1.8353800e+00   7.9860322e+03
 1.8400600e+00   8.0080899e+03
 1.8447400e+00   8.0153681e+03
 1.8494200e+00   8.0654000e+03
 1.8541000e+00   8.0727730e+03
 1.8587800e+00   8.0811793e+03
 1.8634599e+00   8.1436704e+03
 1.8681400e+00   8.1183823e+03
 1.8728200e+00   8.1562042e+03
 1.8775001e+00   8.1603301e+03
 1.8821800e+00   8.2015067e+03
 1.8868600e+00   8.2061889e+03
 1.8915401e+00   8.2086922e+03
 1.8962200e+00   8.2452540e+03
 1.9009000e+00   8.2740108e+03
 1.9055800e+00   8.2956368e+03
 1.9102600e+00   8.3043869e+03
 1.9149400e+00   8.3071740e+03
 1.9196200e+00   8.3638428e+03
 1.9243000e+00   8.3833051e+03
 1.9289800e+00   8.4054728e+03
 1.9336600e+00   8.4718987e+03
 1.9383399e+00   8.4629024e+03
 1.9430200e+00   8.4833022e+03
 1.9477000e+00   8.4937893e+03
 1.9523799e+00   8.5428764e+03
 1.9570600e+00   8.5634038e+03
 1.9617400e+00   8.5882090e+03
 1.9664201e+00   8.6221625e+03
 1.9711000e+00   8.6408064e+03
 1.9757800e+00   8.6717392e+03
 1.9804600e+00   8.7030856e+03
 1.9851400e+00   8.7140929e+03
 1.9898200e+00   8.7679035e+03
 1.9945000e+00   8.7631658e+03
 1.9991800e+00   8.7778973e+03
 2.0038600e+00   8.8363386e+03
 2.0085399e+00   8.8349237e+03
 2.0132201e+00   8.8927842e+03
 2.0179000e+00   8.8956967e+03
 2.0225799e+00   8.9444995e+03
 2.0272601e+00   8.9457201e+03
 2.0319400e+00   9.0007348e+03
 2.0366199e+00   9.0279279e+03
 2.0413001e+00   9.0635028e+03
 2.0459800e+00   9.1021239e+03
 2.0506599e+00   9.1365972e+03
 2.0553401e+00   9.1622184e+03
 2.0600200e+00   9.2131334e+03
 2.0646999e+00   9.2638926e+03
 2.0693800e+00   9.3185408e+03
 2.0740600e+00   9.4012352e+03
 2.0787399e+00   9.5169760e+03
 2.0834200e+00   9.6489362e+03
 2.0881000e+00   9.7712844e+03
 2.0927801e+00   9.9948385e+03
 2.0974600e+00   1.0297988e+04
 2.1021399e+00   1.0691694e+04
 2.1068201e+00   1.1229767e+04
 2.1115000e+00   1.2126554e+04
 2.1161799e+00   1.3334160e+04
 2.1208601e+00   1.5071734e+04
 2.1255400e+00   1.7367785e+04
 2.1302199e+00   2.0348702e+04
 2.1349001e+00   2.3491858e+04
 2.1395800e+00   2.6622179e+04
 2.1442599e+00   2.9178776e+04
 2.1489401e+00   3.0681343e+04
 2.1536200e+00   3.0928386e+04
 2.1582999e+00   3.0017592e+04
 2.1629801e+00   2.8324007e+04
 2.1676600e+00   2.6127694e+04
 2.1723399e+00   2.3882233e+04
 2.1770201e+00   2.1821408e+04
 2.1817000e+00   1.9938518e+04
 2.1863799e+00   1.8361337e+04
 2.1910601e+00   1.6983275e+04
 2.1957400e+00   1.5860114e+04
 2.2004199e+00   1.4838650e+04
 2.2051001e+00   1.4062577e+04
 2.2097800e+00   1.3367785e+04
 2.2144599e+00   1.2892061e+04
 2.2191401e+00   1.2480084e+04
 2.2238200e+00   1.2221108e+04
 2.2284999e+00   1.2002219e+04
 2.2331800e+00   1.1842324e+04
 2.2378600e+00   1.1688697e+04
 2.2425399e+00   1.1539629e+04
 2.2472200e+00   1.1377707e+04
 2.2519000e+00   1.1236705e+04
 2.2565801e+00   1.1039468e+04
 2.2612600e+00   1.0889147e+04
 2.2659400e+00   1.0745269e+04
 2.2706201e+00   1.0624157e+04
 2.2753000e+00   1.0555863e+04
 2.2799799e+00   1.0500806e+04
 2.2846601e+00   1.0438720e+04
 2.2893400e+00   1.0450175e+04
 2.2940199e+00   1.0438572e+04
 2.2987001e+00   1.0450688e+04
 2.3033800e+00   1.0446297e+04
 2.3080599e+00   1.0463103e+04
 2.3127401e+00   1.0465334e+04
 2.3174200e+00   1.0517847e+04
 2.3220999e+00   1.0525040e+04
 2.3267801e+00   1.0571499e+04
 2.3314600e+00   1.0577600e+04
 2.3361399e+00   1.0601750e+04
 2.3408201e+00   1.0604671e+04
 2.3455000e+00   1.0625317e+04
 2.3501799e+00   1.0647521e+04
 2.3548601e+00   1.0679769e+04
 2.3595400e+00   1.0715217e+04
 2.3642199e+00   1.0741713e+04
 2.3689001e+00   1.0763568e+04
 2.3735800e+00   1.0827561e+04
 2.3782599e+00   1.0852718e+04
 2.3829401e+00   1.0874798e+04
 2.3876200e+00   1.0930738e+04
 2.3922999e+00   1.0943715e+04
 2.3969800e+00   1.0994527e+04
 2.4016600e+00   1.1008313e+04
 2.4063399e+00   1.1058474e+04
 2.4110200e+00   1.1115300e+04
 2.4157000e+00   1.1112155e+04
 2.4203801e+00   1.1152674e+04
 2.4250600e+00   1.1186176e+04
 2.4297400e+00   1.1238583e+04
 2.4344201e+00   1.1260692e+04
 2.4391000e+00   1.1302565e+04
 2.4437799e+00   1.1355249e+04
 2.4484601e+00   1.1392111e+04
 2.4531400e+00   1.1407038e+04
 2.4578199e+00   1.1433000e+04
 2.4625001e+00   1.1481754e+04
 2.4671800e+00   1.1510682e+04
 2.4718599e+00   1.1557872e+04
 2.4765401e+00   1.1597062e+04
 2.4812200e+00   1.1644530e+04
 2.4858999e+00   1.1677962e+04
 2.4905801e+00   1.1679897e+04
 2.4952600e+00   1.1752266e+04
 2.4999399e+00   1.1784779e+04
 2.5046201e+00   1.1819852e+04
 2.5093000e+00   1.1849076e+04
 2.5139799e+00   1.1884467e+04
 2.5186601e+00   1.1933723e+04
 2.5233400e+00   1.1950178e+04
 2.5280199e+00   1.2005209e+04
 2.5327001e+00   1.2035475e+04
 2.5373800e+00   1.2052758e+04
 2.5420599e+00   1.2103727e+04
 2.5467401e+00   1.2142119e+04
 2.5514200e+00   1.2154919e+04
 2.5560999e+00   1.2214039e+04
 2.5607800e+00   1.2224013e+04
 2.5654600e+00   1.2258857e+04
 2.5701399e+00   1.2297387e+04
 2.5748200e+00   1.2320983e+04
 2.5795000e+00   1.2325059e+04
 2.5841801e+00   1.2381681e+04
 2.5888600e+00   1.2422421e+04
 2.5935400e+00   1.2426547e+04
 2.5982201e+00   1.2465921e+04
 2.6029000e+00   1.2471847e+04
 2.6075799e+00   1.2508299e+04
 2.6122601e+00   1.2515442e+04
 2.6169400e+00   1.2544624e+04
 2.6216199e+00   1.2580931e+04
 2.6263001e+00   1.2590208e+04
 2.6309800e+00   1.2607973e+04
 2.6356599e+00   1.2650574e+04
 2.6403401e+00   1.2668840e+04
 2.6450200e+00   1.2673605e+04
 2.6496999e+00   1.2699299e+04
 2.6543801e+00   1.2666966e+04
 2.6590600e+00   1.2714407e+04
 2.6637399e+00   1.2717501e+04
 2.6684201e+00   1.2741306e+04
 2.6731000e+00   1.2747518e+04
 2.6777799e+00   1.2787154e+04
 2.6824601e+00   1.2758823e+04
 2.6871400e+00   1.2786827e+04
 2.6918199e+00   1.2794844e+04
 2.6965001e+00   1.2816412e+04
 2.7011800e+00   1.2829137e+04
 2.7058599e+00   1.2820060e+04
 2.7105401e+00   1.2843499e+04
 2.7152200e+00   1.2821775e+04
 2.7198999e+00   1.2851962e+04
 2.7245800e+00   1.2871483e+04
 2.7292600e+00   1.2850759e+04
 2.7339399e+00   1.2854577e+04
 2.7386200e+00   1.2841965e+04
 2.7433000e+00   1.2823425e+04
 2.7479801e+00   1.2821293e+04
 2.7526600e+00   1.2815753e+04
 2.7573400e+00   1.2809710e+04
 2.7620201e+00   1.2828235e+04
 2.7667000e+00   1.2814151e+04
 2.7713799e+00   1.2788039e+04
 2.7760601e+00   1.2799662e+04
 2.7807400e+00   1.2783199e+04
 2.7854199e+00   1.2745714e+04
 2.7901001e+00   1.2767753e+04
 2.7947800e+00   1.2752756e+04
 2.7994599e+00   1.2741787e+04
 2.8041401e+00   1.2738599e+04
 2.8088200e+00   1.2721970e+04
 2.8134999e+00   1.2714480e+04
 2.8181801e+00   1.2693209e+04
 2.8228600e+00   1.2686302e+04
 2.8275399e+00   1.2663838e+04
 2.8322201e+00   1.2661756e+04
 2.8369000e+00   1.2643330e+04
 2.8415799e+00   1.2641136e+04
 2.8462601e+00   1.2628788e+04
 2.8509400e+00   1.2617467e+04
 2.8556199e+00   1.2583503e+04
 2.8603001e+00   1.2580803e+04
 2.8649800e+00   1.2560348e+04
 2.8696599e+00   1.2540111e+04
 2.8743401e+00   1.2523764e+04
 2.8790200e+00   1.2511316e+04
 2.8836999e+00   1.2469691e+04
 2.8883801e+00   1.2478950e+04
 2.8930600e+00   1.2473167e+04
 2.8977399e+00   1.2458439e+04
 2.9024200e+00   1.2436137e+04
 2.9071000e+00   1.2413975e+04
 2.9117801e+00   1.2378424e+04
 2.9164600e+00   1.2356980e+04
 2.9211400e+00   1.2352912e+04
 2.9258201e+00   1.2310290e+04
 2.9305000e+00   1.2282824e+04
 2.9351799e+00   1.2291120e+04
 2.9398601e+00   1.2253204e+04
 2.9445400e+00   1.2262127e+04
 2.9492199e+00   1.2219467e+04
 2.9539001e+00   1.2244467e+04
 2.9585800e+00   1.2196972e+04
 2.9632599e+00   1.2153144e+04
 2.9679401e+00   1.2136179e+04
 2.9726200e+00   1.2119870e+04
 2.9772999e+00   1.2106118e+04
 2.9819801e+00   1.2087362e+04
 2.9866600e+00   1.2050858e+04
 2.9913399e+00   1.2004464e+04
 2.9960201e+00   1.1979407e+04
 3.0007000e+00   1.1967476e+04
 3.0053799e+00   1.1958319e+04
 3.0100601e+00   1.1908123e+04
 3.0147400e+00   1.1891405e+04
 3.0194199e+00   1.1881552e+04
 3.0241001e+00   1.1832871e+04
 3.0287800e+00   1.1814633e+04
 3.0334599e+00   1.1805199e+04
 3.0381401e+00   1.1771685e+04
 3.0428200e+00   1.1749719e+04
 3.0474999e+00   1.1718426e+04
 3.0521801e+00   1.1683207e+04
 3.0568600e+00   1.1648623e+04
 3.0615399e+00   1.1621714e+04
 3.0662200e+00   1.1586176e+04
 3.0709000e+00   1.1569877e+04
 3.0755799e+00   1.1517118e+04
 3.0802600e+00   1.1539231e+04
 3.0849400e+00   1.1481229e+04
 3.0896201e+00   1.1481582e+04
 3.0943000e+00   1.1442226e+04
 3.0989799e+00   1.1436216e+04
 3.1036601e+00   1.1392967e+04
 3.1083400e+00   1.1406288e+04
 3.1130199e+00   1.1350406e+04
 3.1177001e+00   1.1352444e+04
 3.1223800e+00   1.1334797e+04
 3.1270599e+00   1.1303707e+04
 3.1317401e+00   1.1296138e+04
 3.1364200e+00   1.1284310e+04
 3.1410999e+00   1.1247881e+04
 3.1457801e+00   1.1239314e+04
 3.1504600e+00   1.1203063e+04
 3.1551399e+00   1.1192750e+04
 3.1598201e+00   1.1181341e+04
 3.1645000e+00   1.1158493e+04
 3.1691799e+00   1.1134616e+04
 3.1738601e+00   1.1125065e+04
 3.1785400e+00   1.1097014e+04
 3.1832199e+00   1.1088228e+04
 3.1879001e+00   1.1100283e+04
 3.1925800e+00   1.1048375e+04
 3.1972599e+00   1.1064050e+04
 3.2019401e+00   1.1024271e+04
 3.2066200e+00   1.1051240e+04
 3.2112999e+00   1.1008019e+04
 3.2159801e+00   1.0989695e+04
 3.2206600e+00   1.0995801e+04
 3.2253399e+00   1.0983272e+04
 3.2300200e+00   1.0916522e+04
 3.2347000e+00   1.0945414e+04
 3.2393799e+00   1.0920182e+04
 3.2440600e+00   1.0898624e+04
 3.2487400e+00   1.0882552e+04
 3.2534201e+00   1.0857030e+04
 3.2581000e+00   1.0855769e+04
 3.2627800e+00   1.0870388e+04
 3.2674601e+00   1.0817262e+04
 3.2721400e+00   1.0837315e+04
 3.2768199e+00   1.0840111e+04
 3.2815001e+00   1.0814065e+04
 3.2861800e+00   1.0816700e+04
 3.2908599e+00   1.0804217e+04
 3.2955401e+00   1.0802407e+04
 3.3002200e+00   1.0797017e+04
 3.3048999e+00   1.0781624e+04
 3.3095801e+00   1.0788216e+04
 3.3142600e+00   1.0805712e+04
 3.3189399e+00   1.0744173e+04
 3.3236201e+00   1.0784707e+04
 3.3283000e+00   1.0755330e+04
 3.3329799e+00   1.0740356e+04
 3.3376601e+00   1.0745839e+04
 3.3423400e+00   1.0724688e+04
 3.3470199e+00   1.0748896e+04
 3.3517001e+00   1.0745280e+04
 3.3563800e+00   1.0729448e+04
 3.3610599e+00   1.0720689e+04
 3.3657401e+00   1.0747202e+04
 3.3704200e+00   1.0724812e+04
 3.3750999e+00   1.0730514e+04
 3.3797801e+00   1.0734712e+04
 3.3844600e+00   1.0727215e+04
 3.3891399e+00   1.0731806e+04
 3.3938200e+00   1.0714866e+04
 3.3985000e+00   1.0727147e+04
 3.4031799e+00   1.0735623e+04
 3.4078600e+00   1.0711831e+04
 3.4125400e+00   1.0736424e+04
 3.4172201e+00   1.0738810e+04
 3.4219000e+00   1.0719528e+04
 3.4265800e+00   1.0760063e+04
 3.4312601e+00   1.0717243e+04
 3.4359400e+00   1.0748356e+04
 3.4406199e+00   1.0733481e+04
 3.4453001e+00   1.0731266e+04
 3.4499800e+00   1.0752559e+04
 3.4546599e+00   1.0763673e+04
 3.4593401e+00   1.0726229e+04
 3.4640200e+00   1.0767514e+04
 3.4686999e+00   1.0744499e+04
 3.4733801e+00   1.0752205e+04
 3.4780600e+00   1.0756355e+04
 3.4827399e+00   1.0768204e+04
 3.4874201e+00   1.0760381e+04
 3.4921000e+00   1.0781435e+04
 3.4967799e+00   1.0741810e+04
 3.5014601e+00   1.0755912e+04
 3.5061400e+00   1.0764044e+04
 3.5108199e+00   1.0735180e+04
 3.5155001e+00   1.0758242e+04
 3.5201800e+00   1.0746496e+04
 3.5248599e+00   1.0745096e+04
 3.5295401e+00   1.0754099e+04
 3.5342200e+00   1.0722565e+04
 3.5388999e+00   1.0730555e+04
 3.5435801e+00   1.0774313e+04
 3.5482600e+00   1.0701007e+04
 3.5529399e+00   1.0761205e+04
 3.5576200e+00   1.0722012e+04
 3.5623000e+00   1.0736951e+04
 3.5669799e+00   1.0752733e+04
 3.5716600e+00   1.0700441e+04
 3.5763400e+00   1.0729880e+04
 3.5810201e+00   1.0768207e+04
 3.5857000e+00   1.0696723e+04
 3.5903800e+00   1.0727076e+04
 3.5950601e+00   1.0728798e+04
 3.5997400e+00   1.0685006e+04
 3.6044199e+00   1.0742813e+04
 3.6091001e+00   1.0714254e+04
 3.6137800e+00   1.0670901e+04
 3.6184599e+00   1.0762420e+04
 3.6231401e+00   1.0677161e+04
 3.6278200e+00   1.0688793e+04
 3.6324999e+00   1.0737090e+04
 3.6371801e+00   1.0660346e+04
 3.6418600e+00   1.0727367e+04
 3.6465399e+00   1.0727543e+04
 3.6512201e+00   1.0649908e+04
 3.6559000e+00   1.0741230e+04
 3.6605799e+00   1.0672769e+04
 3.6652601e+00   1.0674871e+04
 3.6699400e+00   1.0709403e+04
 3.6746199e+00   1.0583324e+04
 3.6793001e+00   1.0593342e+04
 3.6839800e+00   1.0645278e+04
 3.6886599e+00   1.0524848e+04
 3.6933401e+00   1.0587980e+04
 3.6980200e+00   1.0517940e+04
 3.7026999e+00   1.0476566e+04
 3.7073801e+00   1.0489635e+04
 3.7120600e+00   1.0395351e+04
 3.7167399e+00   1.0366223e+04
 3.7214200e+00   1.0401875e+04
 3.7261000e+00   1.0257596e+04
 3.7307799e+00   1.0275246e+04
 3.7354600e+00   1.0220108e+04
 3.7401400e+00   1.0139454e+04
 3.7448201e+00   1.0157926e+04
 3.7495000e+00   1.0137104e+04
 3.7541800e+00   1.0009482e+04
 3.7588601e+00   1.0092685e+04
 3.7635400e+00   9.8989396e+03
 3.7682199e+00   9.9519715e+03
 3.7729001e+00   9.9258703e+03
 3.7775800e+00   9.8477109e+03
 3.7822599e+00   9.8120109e+03
 3.7869401e+00   9.8879200e+03
 3.7916200e+00   9.6539599e+03
 3.7962999e+00   9.8450120e+03
 3.8009801e+00   9.6816449e+03
 3.8056600e+00   9.6562424e+03
 3.8103399e+00   9.7058159e+03
 3.8150201e+00   9.5893571e+03
 3.8197000e+00   9.6117127e+03
 3.8243799e+00   9.6526393e+03
 3.8290601e+00   9.5228114e+03
 3.8337400e+00   9.5756312e+03
 3.8384199e+00   9.5288488e+03
 3.8431001e+00   9.3900907e+03
 3.8477800e+00   9.5496816e+03
 3.8524599e+00   9.3801549e+03
 3.8571401e+00   9.4186944e+03
 3.8618200e+00   9.3664347e+03
 3.8664999e+00   9.3198789e+03
 3.8711801e+00   9.3512544e+03
 3.8758600e+00   9.3012326e+03
 3.8805399e+00   9.2202171e+03
 3.8852201e+00   9.2957194e+03
 3.8899000e+00   9.1530230e+03
 3.8945799e+00   9.1206005e+03
 3.8992600e+00   9.1279219e+03
 3.9039400e+00   9.0624973e+03
 3.9086201e+00   9.0261807e+03
 3.9133000e+00   9.0808653e+03
 3.9179800e+00   8.9277021e+03
 3.9226601e+00   8.9882007e+03
 3.9273400e+00   9.0069470e+03
 3.9320199e+00   8.8918596e+03
 3.9367001e+00   8.8969296e+03
 3.9413800e+00   8.8881172e+03
 3.9460599e+00   8.8136696e+03
 3.9507401e+00   8.8800082e+03
 3.9554200e+00   8.8160797e+03
 3.9600999e+00   8.7615629e+03
 3.9647801e+00   8.7655946e+03
 3.9694600e+00   8.7074334e+03
 3.9741399e+00   8.6904065e+03
 3.9788201e+00   8.6555853e+03
 3.9835000e+00   8.6311529e+03
 3.9881799e+00   8.5746765e+03
 3.9928601e+00   8.5628095e+03
 3.9975400e+00   8.5331358e+03
 4.0022202e+00   8.5839814e+03
 4.0068998e+00   8.4720247e+03
 4.0115800e+00   8.5278142e+03
 4.0162601e+00   8.4950809e+03
 4.0209398e+00   8.4171709e+03
 4.0256200e+00   8.4440728e+03
 4.0303001e+00   8.4425733e+03
 4.0349798e+00   8.3743139e+03
 4.0396600e+00   8.4632451e+03
 4.0443401e+00   8.3133212e+03
 4.0490198e+00   8.3220615e+03
 4.0537000e+00   8.3560415e+03
 4.0583801e+00   8.3055297e+03
 4.0630598e+00   8.3114966e+03
 4.0677400e+00   8.3120140e+03
 4.0724201e+00   8.2463355e+03
 4.0770998e+00   8.2818307e+03
 4.0817800e+00   8.2171683e+03
 4.0864601e+00   8.1787892e+03
 4.0911398e+00   8.2548182e+03
 4.0958200e+00   8.1134221e+03
 4.1005001e+00   8.1500543e+03
 4.1051798e+00   8.1575602e+03
 4.1098599e+00   8.1235304e+03
 4.1145401e+00   8.1418080e+03
 4.1192198e+00   8.1308053e+03
 4.1238999e+00   8.0209489e+03
 4.1285801e+00   8.1593304e+03
 4.1332598e+00   8.0008409e+03
 4.1379399e+00   8.0774084e+03
 4.1426201e+00   8.0467484e+03
 4.1472998e+00   7.9777369e+03
 4.1519799e+00   8.0370005e+03
 4.1566601e+00   7.9928853e+03
 4.1613402e+00   7.9187634e+03
 4.1660199e+00   8.0346402e+03
 4.1707001e+00   7.8888900e+03
 4.1753802e+00   7.9160913e+03
 4.1800599e+00   7.9265156e+03
 4.1847401e+00   7.8701789e+03
 4.1894202e+00   7.9475898e+03
 4.1940999e+00   7.9005472e+03
 4.1987801e+00   7.8390951e+03
 4.2034602e+00   7.9456289e+03
 4.2081399e+00   7.8762710e+03
 4.2128201e+00   7.8846564e+03
 4.2175002e+00   8.0000877e+03
 4.2221799e+00   7.9028355e+03
 4.2268600e+00   7.9277543e+03
 4.2315402e+00   7.9557124e+03
 4.2362199e+00   7.8605278e+03
 4.2409000e+00   7.9949133e+03
 4.2455802e+00   8.0429495e+03
 4.2502599e+00   8.0222081e+03
 4.2549400e+00   8.2304754e+03
 4.2596202e+00   8.2135656e+03
 4.2642999e+00   8.4181535e+03
 4.2689800e+00   8.6380041e+03
 4.2736602e+00   8.9241857e+03
 4.2783399e+00   9.1713007e+03
 4.2830200e+00   9.4620182e+03
 4.2877002e+00   9.6137094e+03
 4.2923799e+00   9.8160157e+03
 4.2970600e+00   9.8855141e+03
 4.3017402e+00   9.8402399e+03
 4.3064198e+00   9.8102927e+03
 4.3111000e+00   9.6740922e+03
 4.3157802e+00   9.5603881e+03
 4.3204598e+00   9.3599788e+03
 4.3251400e+00   9.1152852e+03
 4.3298202e+00   9.0295427e+03
 4.3344998e+00   8.8470046e+03
 4.3391800e+00   8.7317010e+03
 4.3438601e+00   8.6670003e+03
 4.3485398e+00   8.5483747e+03
 4.3532200e+00   8.4729901e+03
 4.3579001e+00   8.4353702e+03
 4.3625798e+00   8.3053679e+03
 4.3672600e+00   8.2370938e+03
 4.3719401e+00   8.1666209e+03
 4.3766198e+00   8.0953803e+03
 4.3813000e+00   8.0570257e+03
 4.3859801e+00   7.9832624e+03
 4.3906598e+00   7.8953474e+03
 4.3953400e+00   7.9194651e+03
 4.4000201e+00   7.8134038e+03
 4.4046998e+00   7.8405615e+03
 4.4093800e+00   7.7506898e+03
 4.4140601e+00   7.7108506e+03
 4.4187398e+00   7.6901308e+03
 4.4234200e+00   7.6489630e+03
 4.4281001e+00   7.5776325e+03
 4.4327798e+00   7.6733496e+03
 4.4374599e+00   7.5604097e+03
 4.4421401e+00   7.5940039e+03
 4.4468198e+00   7.5669082e+03
 4.4514999e+00   7.5098524e+03
 4.4561801e+00   7.5150454e+03
 4.4608598e+00   7.5148182e+03
 4.4655399e+00   7.4872747e+03
 4.4702201e+00   7.5101227e+03
 4.4748998e+00   7.4532062e+03
 4.4795799e+00   7.4416170e+03
 4.4842601e+00   7.4477169e+03
 4.4889398e+00   7.4025017e+03
 4.4936199e+00   7.3906501e+03
 4.4983001e+00   7.3662970e+03
 4.5029802e+00   7.3094389e+03
 4.5076599e+00   7.2826917e+03
 4.5123401e+00   7.2627657e+03
 4.5170202e+00   7.1725864e+03
 4.5216999e+00   7.2035558e+03
 4.5263801e+00   7.1322777e+03
 4.5310602e+00   7.1129371e+03
 4.5357399e+00   7.1020692e+03
 4.5404201e+00   7.0683721e+03
 4.5451002e+00   7.0473865e+03
 4.5497799e+00   7.0376972e+03
 4.5544600e+00   7.0013871e+03
 4.5591402e+00   7.0077122e+03
 4.5638199e+00   6.9658839e+03
 4.5685000e+00   6.9275096e+03
 4.5731802e+00   6.9560548e+03
 4.5778599e+00   6.9314833e+03
 4.5825400e+00   6.9152047e+03
 4.5872202e+00   6.9037028e+03
 4.5918999e+00   6.8607797e+03
 4.5965800e+00   6.8659880e+03
 4.6012602e+00   6.8270031e+03
 4.6059399e+00   6.8316951e+03
 4.6106200e+00   6.8253132e+03
 4.6153002e+00   6.8031877e+03
 4.6199799e+00   6.7625751e+03
 4.6246600e+00   6.7676319e+03
 4.6293402e+00   6.7526312e+03
 4.6340199e+00   6.7311199e+03
 4.6387000e+00   6.7267187e+03
 4.6433802e+00   6.6924480e+03
 4.6480598e+00   6.7000973e+03
 4.6527400e+00   6.6765741e+03
 4.6574202e+00   6.6502675e+03
 4.6620998e+00   6.6747226e+03
 4.6667800e+00   6.6609412e+03
 4.6714602e+00   6.6472499e+03
 4.6761398e+00   6.6331758e+03
 4.6808200e+00   6.6235528e+03
 4.6855001e+00   6.6126729e+03
 4.6901798e+00   6.6045258e+03
 4.6948600e+00   6.6109182e+03
 4.6995401e+00   6.6122570e+03
 4.7042198e+00   6.6120320e+03
 4.7089000e+00   6.5910985e+03
 4.7135801e+00   6.6371388e+03
 4.7182598e+00   6.6297417e+03
 4.7229400e+00   6.6885101e+03
 4.7276201e+00   6.6721902e+03
 4.7322998e+00   6.7193136e+03
 4.7369800e+00   6.7517049e+03
 4.7416601e+00   6.7708383e+03
 4.7463398e+00   6.8004120e+03
 4.7510200e+00   6.8354507e+03
 4.7557001e+00   6.8671904e+03
 4.7603798e+00   6.9025728e+03
 4.7650599e+00   6.9648209e+03
 4.7697401e+00   7.0183535e+03
 4.7744198e+00   7.1186233e+03
 4.7790999e+00   7.2038222e+03
 4.7837801e+00   7.3060813e+03
 4.7884598e+00   7.4582796e+03
 4.7931399e+00   7.6240523e+03
 4.7978201e+00   7.8047433e+03
 4.8024998e+00   8.0265525e+03
 4.8071799e+00   8.2331813e+03
 4.8118601e+00   8.4647904e+03
 4.8165398e+00   8.7043786e+03
 4.8212199e+00   8.9489843e+03
 4.8259001e+00   9.1755486e+03
 4.8305802e+00   9.3701097e+03
 4.8352599e+00   9.5103133e+03
 4.8399401e+00   9.5823321e+03
 4.8446202e+00   9.5514560e+03
 4.8492999e+00   9.4138539e+03
 4.8539801e+00   9.1996998e+03
 4.8586602e+00   8.9113963e+03
 4.8633399e+00   8.5864425e+03
 4.8680201e+00   8.2563734e+03
 4.8727002e+00   7.9620867e+03
 4.8773799e+00   7.7272765e+03
 4.8820601e+00   7.5528584e+03
 4.8867402e+00   7.4133641e+03
 4.8914199e+00   7.3448939e+03
 4.8961000e+00   7.3168810e+03
 4.9007802e+00   7.2782974e+03
 4.9054599e+00   7.3192994e+03
 4.9101400e+00   7.3721925e+03
 4.9148202e+00   7.4198690e+03
 4.9194999e+00   7.4813716e+03
 4.9241800e+00   7.5675387e+03
 4.9288602e+00   7.6461095e+03
 4.9335399e+00   7.7534128e+03
 4.9382200e+00   7.8643596e+03
 4.9429002e+00   7.9756329e+03
 4.9475799e+00   8.1636248e+03
 4.9522600e+00   8.3380811e+03
 4.9569402e+00   8.5662343e+03
 4.9616199e+00   8.8031234e+03
 4.9663000e+00   9.0845098e+03
 4.9709802e+00   9.3539264e+03
 4.9756598e+00   9.6427897e+03
 4.9803400e+00   9.9088352e+03
 4.9850202e+00   1.0151377e+04
 4.9896998e+00   1.0291107e+04
 4.9943800e+00   1.0403162e+04
 4.9990602e+00   1.0409000e+04
 5.0037398e+00   1.0286506e+04
 5.0084200e+00   1.0105291e+04
 5.0131001e+00   9.8514273e+03
 5.0177798e+00   9.5186536e+03
 5.0224600e+00   9.1434208e+03
 5.0271401e+00   8.7781422e+03
 5.0318198e+00   8.4158492e+03
 5.0365000e+00   8.1183460e+03
 5.0411801e+00   7.8049477e+03
 5.0458598e+00   7.5672952e+03
 5.0505400e+00   7.3400965e+03
 5.0552201e+00   7.1876052e+03
 5.0598998e+00   7.0236919e+03
 5.0645800e+00   6.9520637e+03
 5.0692601e+00   6.9120370e+03
 5.0739398e+00   6.9047507e+03
 5.0786200e+00   6.9510355e+03
 5.0833001e+00   7.0712495e+03
 5.0879798e+00   7.1611054e+03
 5.0926600e+00   7.5433045e+03
 5.0973401e+00   7.7893067e+03
 5.1020198e+00   8.2491948e+03
 5.1066999e+00   9.4934904e+03
 5.1113801e+00   1.0443578e+04
 5.1160598e+00   1.2790176e+04
 5.1207399e+00   1.7156215e+04
 5.1254201e+00   2.1019662e+04
 5.1300998e+00   3.0647919e+04
 5.1347799e+00   3.9386271e+04
 5.1394601e+00   4.3602538e+04
 5.1441398e+00   5.1158991e+04
 5.1488199e+00   4.7301340e+04
 5.1535001e+00   4.1459113e+04
 5.1581802e+00   3.6015377e+04
 5.1628599e+00   2.5993569e+04
 5.1675401e+00   1.9269599e+04
 5.1722202e+00   1.4749124e+04
 5.1768999e+00   1.0895177e+04
 5.1815801e+00   9.3937440e+03
 5.1862602e+00   8.0399090e+03
 5.1909399e+00   7.3180116e+03
 5.1956201e+00   7.0818771e+03
 5.2003002e+00   6.7336878e+03
 5.2049799e+00   6.5679687e+03
 5.2096601e+00   6.4666004e+03
 5.2143402e+00   6.3392198e+03
 5.2190199e+00   6.2769784e+03
 5.2237000e+00   6.2221837e+03
 5.2283802e+00   6.1423021e+03
 5.2330599e+00   6.1262391e+03
 5.2377400e+00   6.0785524e+03
 5.2424202e+00   6.0198502e+03
 5.2470999e+00   6.0234560e+03
 5.2517800e+00   5.9785237e+03
 5.2564602e+00   5.9700957e+03
 5.2611399e+00   5.9642897e+03
 5.2658200e+00   5.9258933e+03
 5.2705002e+00   5.9201462e+03
 5.2751799e+00   5.8989792e+03
 5.2798600e+00   5.9015924e+03
 5.2845402e+00   5.8914390e+03
 5.2892199e+00   5.8882993e+03
 5.2939000e+00   5.8862949e+03
 5.2985802e+00   5.8840135e+03
 5.3032598e+00   5.8683779e+03
 5.3079400e+00   5.8621001e+03
 5.3126202e+00   5.8470253e+03
 5.3172998e+00   5.8511525e+03
 5.3219800e+00   5.8541988e+03
 5.3266602e+00   5.8314659e+03
 5.3313398e+00   5.8307108e+03
 5.3360200e+00   5.8299070e+03
 5.3407001e+00   5.8150512e+03
 5.3453798e+00   5.8250958e+03
 5.3500600e+00   5.8080740e+03
 5.3547401e+00   5.8211771e+03
 5.3594198e+00   5.8145305e+03
 5.3641000e+00   5.7939393e+03
 5.3687801e+00   5.8095933e+03
 5.3734598e+00   5.7919929e+03
 5.3781400e+00   5.8080960e+03
 5.3828201e+00   5.7919119e+03
 5.3874998e+00   5.7890302e+03
 5.3921800e+00   5.7864418e+03
 5.3968601e+00   5.8111440e+03
 5.4015398e+00   5.8040749e+03
 5.4062200e+00   5.8176038e+03
 5.4109001e+00   5.8041552e+03
 5.4155798e+00   5.8202524e+03
 5.4202600e+00   5.8274988e+03
 5.4249401e+00   5.8297236e+03
 5.4296198e+00   5.8247422e+03
 5.4342999e+00   5.8467809e+03
 5.4389801e+00   5.8458635e+03
 5.4436598e+00   5.8718009e+03
 5.4483399e+00   5.8796381e+03
 5.4530201e+00   5.8906773e+03
 5.4576998e+00   5.9163332e+03
 5.4623799e+00   5.9309246e+03
 5.4670601e+00   5.9513904e+03
 5.4717398e+00   5.9867210e+03
 5.4764199e+00   5.9979192e+03
 5.4811001e+00   6.0586618e+03
 5.4857798e+00   6.0992863e+03
 5.4904599e+00   6.1375303e+03
 5.4951401e+00   6.2070790e+03
 5.4998202e+00   6.2637516e+03
 5.5044999e+00   6.3742575e+03
 5.5091801e+00   6.4856439e+03
 5.5138602e+00   6.6169435e+03
 5.5185399e+00   6.7853347e+03
 5.5232201e+00   6.9881976e+03
 5.5279002e+00   7.2238882e+03
 5.5325799e+00   7.5421233e+03
 5.5372601e+00   7.8200574e+03
 5.5419402e+00   8.1789006e+03
 5.5466199e+00   8.5070185e+03
 5.5513000e+00   8.8192308e+03
 5.5559802e+00   9.0903388e+03
 5.5606599e+00   9.3235195e+03
 5.5653400e+00   9.4300272e+03
 5.5700202e+00   9.5093903e+03
 5.5746999e+00   9.4789388e+03
 5.5793800e+00   9.3862745e+03
 5.5840602e+00   9.2704919e+03
 5.5887399e+00   9.0826656e+03
 5.5934200e+00   8.8526876e+03
 5.5981002e+00   8.6632935e+03
 5.6027799e+00   8.4194554e+03
 5.6074600e+00   8.1750257e+03
 5.6121402e+00   7.9619397e+03
 5.6168199e+00   7.7457439e+03
 5.6215000e+00   7.5828469e+03
 5.6261802e+00   7.3979472e+03
 5.6308599e+00   7.2221513e+03
 5.6355400e+00   7.0958003e+03
 5.6402202e+00   6.9526980e+03
 5.6448998e+00   6.8294209e+03
 5.6495800e+00   6.7462127e+03
 5.6542602e+00   6.6305338e+03
 5.6589398e+00   6.5570666e+03
 5.6636200e+00   6.4678171e+03
 5.6683002e+00   6.4036201e+03
 5.6729798e+00   6.3625084e+03
 5.6776600e+00   6.3022112e+03
 5.6823401e+00   6.2411970e+03
 5.6870198e+00   6.2175998e+03
 5.6917000e+00   6.1484339e+03
 5.6963801e+00   6.1348840e+03
 5.7010598e+00   6.1053336e+03
 5.7057400e+00   6.0829433e+03
 5.7104201e+00   6.0736841e+03
 5.7150998e+00   6.0489959e+03
 5.7197800e+00   6.0393435e+03
 5.7244601e+00   6.0477690e+03
 5.7291398e+00   6.0469311e+03
 5.7338200e+00   6.0401906e+03
 5.7385001e+00   6.0601216e+03
 5.7431798e+00   6.0464399e+03
 5.7478600e+00   6.0788933e+03
 5.7525401e+00   6.0886865e+03
 5.7572198e+00   6.0973563e+03
 5.7618999e+00   6.1012368e+03
 5.7665801e+00   6.1077182e+03
 5.7712598e+00   6.1065680e+03
 5.7759399e+00   6.1080154e+03
 5.7806201e+00   6.0954687e+03
 5.7852998e+00   6.0832438e+03
 5.7899799e+00   6.0675812e+03
 5.7946601e+00   6.0643517e+03
 5.7993398e+00   6.0851225e+03
 5.8040199e+00   6.0715292e+03
 5.8087001e+00   6.0874900e+03
 5.8133798e+00   6.0918291e+03
 5.8180599e+00   6.0778777e+03
 5.8227401e+00   6.1074725e+03
 5.8274202e+00   6.1300381e+03
 5.8320999e+00   6.1158247e+03
 5.8367801e+00   6.1685324e+03
 5.8414602e+00   6.1685954e+03
 5.8461399e+00   6.2180982e+03
 5.8508201e+00   6.2574225e+03
 5.8555002e+00   6.2845450e+03
 5.8601799e+00   6.3447261e+03
 5.8648601e+00   6.3886728e+03
 5.8695402e+00   6.4513321e+03
 5.8742199e+00   6.5460180e+03
 5.8789001e+00   6.6053451e+03
 5.8835802e+00   6.7331568e+03
 5.8882599e+00   6.8406839e+03
 5.8929400e+00   6.9603878e+03
 5.8976202e+00   7.1730292e+03
 5.9022999e+00   7.4017223e+03
 5.9069800e+00   7.7567473e+03
 5.9116602e+00   8.2433401e+03
 5.9163399e+00   8.8974018e+03
 5.9210200e+00   9.8403402e+03
 5.9257002e+00   1.1140222e+04
 5.9303799e+00   1.2727871e+04
 5.9350600e+00   1.4210886e+04
 5.9397402e+00   1.5091851e+04
 5.9444199e+00   1.5339901e+04
 5.9491000e+00   1.5144777e+04
 5.9537802e+00   1.4341555e+04
 5.9584599e+00   1.3269092e+04
 5.9631400e+00   1.2179125e+04
 5.9678202e+00   1.1430541e+04
 5.9724998e+00   1.0838249e+04
 5.9771800e+00   1.0487197e+04
 5.9818602e+00   1.0219146e+04
 5.9865398e+00   1.0052785e+04
 5.9912200e+00   9.8059652e+03
 5.9959002e+00   9.5680385e+03
 6.0005798e+00   9.3480396e+03
 6.0052600e+00   9.0669012e+03
 6.0099401e+00   8.8149543e+03
 6.0146198e+00   8.5458834e+03
 6.0193000e+00   8.2480423e+03
 6.0239801e+00   8.0174136e+03
 6.0286598e+00   7.7562819e+03
 6.0333400e+00   7.5243019e+03
 6.0380201e+00   7.3374601e+03
 6.0426998e+00   7.1447310e+03
 6.0473800e+00   6.9771627e+03
 6.0520601e+00   6.8463055e+03
 6.0567398e+00   6.6837895e+03
 6.0614200e+00   6.5942142e+03
 6.0661001e+00   6.4912280e+03
 6.0707798e+00   6.4003424e+03
 6.0754600e+00   6.3656246e+03
 6.0801401e+00   6.2943806e+03
 6.0848198e+00   6.2203006e+03
 6.0895000e+00   6.2156820e+03
 6.0941801e+00   6.1230093e+03
 6.0988598e+00   6.1199164e+03
 6.1035399e+00   6.0744465e+03
 6.1082201e+00   6.0372222e+03
 6.1128998e+00   6.0493250e+03
 6.1175799e+00   6.0050789e+03
 6.1222601e+00   5.9866398e+03
 6.1269398e+00   5.9860335e+03
 6.1316199e+00   5.9604176e+03
 6.1363001e+00   5.9568341e+03
 6.1409798e+00   5.9632211e+03
 6.1456599e+00   5.9204263e+03
 6.1503401e+00   5.9261432e+03
 6.1550202e+00   5.9100731e+03
 6.1596999e+00   5.9142695e+03
 6.1643801e+00   5.9107504e+03
 6.1690602e+00   5.9029370e+03
 6.1737399e+00   5.8916954e+03
 6.1784201e+00   5.9099007e+03
 6.1831002e+00   5.8870226e+03
 6.1877799e+00   5.9047102e+03
 6.1924601e+00   5.8948300e+03
 6.1971402e+00   5.8942023e+03
 6.2018199e+00   5.9056954e+03
 6.2065001e+00   5.8895865e+03
 6.2111802e+00   5.8844176e+03
 6.2158599e+00   5.8898775e+03
 6.2205400e+00   5.8835526e+03
 6.2252202e+00   5.8844225e+03
 6.2298999e+00   5.9055631e+03
 6.2345800e+00   5.8735086e+03
 6.2392602e+00   5.8890027e+03
 6.2439399e+00   5.8778640e+03
 6.2486200e+00   5.8842094e+03
 6.2533002e+00   5.8875976e+03
 6.2579799e+00   5.9075317e+03
 6.2626600e+00   5.8943340e+03
 6.2673402e+00   5.9021118e+03
 6.2720199e+00   5.8765171e+03
 6.2767000e+00   5.9220288e+03
 6.2813802e+00   5.9004494e+03
 6.2860599e+00   5.8937636e+03
 6.2907400e+00   5.8955551e+03
 6.2954202e+00   5.9138588e+03
 6.3000998e+00   5.8980830e+03
 6.3047800e+00   5.9325561e+03
 6.3094602e+00   5.9151886e+03
 6.3141398e+00   5.9298108e+03
 6.3188200e+00   5.9419028e+03
 6.3235002e+00   5.9175654e+03
 6.3281798e+00   5.9574217e+03
 6.3328600e+00   5.9329110e+03
 6.3375401e+00   5.9614945e+03
 6.3422198e+00   5.9468675e+03
 6.3469000e+00   5.9436604e+03
 6.3515801e+00   5.9531272e+03
 6.3562598e+00   5.9895455e+03
 6.3609400e+00   5.9309260e+03
 6.3656201e+00   5.9868668e+03
 6.3702998e+00   5.9528992e+03
 6.3749800e+00   5.9543454e+03
 6.3796601e+00   5.9487546e+03
 6.3843398e+00   5.9880208e+03
 6.3890200e+00   5.9794325e+03
 6.3937001e+00   5.9849852e+03
 6.3983798e+00   5.9741627e+03
 6.4030600e+00   5.9925571e+03
 6.4077401e+00   6.0075242e+03
 6.4124198e+00   5.9926339e+03
 6.4171000e+00   6.0310836e+03
 6.4217801e+00   6.0265656e+03
 6.4264598e+00   6.0348476e+03
 6.4311399e+00   6.0483186e+03
 6.4358201e+00   6.0587831e+03
 6.4404998e+00   6.0664849e+03
 6.4451799e+00   6.0950769e+03
 6.4498601e+00   6.0481494e+03
 6.4545398e+00   6.0764600e+03
 6.4592199e+00   6.0383956e+03
 6.4639001e+00   6.0815665e+03
 6.4685798e+00   6.0715628e+03
 6.4732599e+00   6.0586053e+03
 6.4779401e+00   6.0544376e+03
 6.4826198e+00   6.0452648e+03
 6.4872999e+00   6.0366768e+03
 6.4919801e+00   6.0406517e+03
 6.4966602e+00   6.0683411e+03
 6.5013399e+00   6.0090997e+03
 6.5060201e+00   6.0732011e+03
 6.5107002e+00   6.0586229e+03
 6.5153799e+00   6.0836193e+03
 6.5200601e+00   6.0886122e+03
 6.5247402e+00   6.1027905e+03
 6.5294199e+00   6.0706299e+03
 6.5341001e+00   6.1045611e+03
 6.5387802e+00   6.0948043e+03
 6.5434599e+00   6.1076323e+03
 6.5481400e+00   6.1274069e+03
 6.5528202e+00   6.1232915e+03
 6.5574999e+00   6.1426096e+03
 6.5621800e+00   6.1188740e+03
 6.5668602e+00   6.1574361e+03
 6.5715399e+00   6.1705213e+03
 6.5762200e+00   6.1578498e+03
 6.5809002e+00   6.1740889e+03
 6.5855799e+00   6.1931082e+03
 6.5902600e+00   6.1778331e+03
 6.5949402e+00   6.2204792e+03
 6.5996199e+00   6.1583783e+03
 6.6043000e+00   6.2340815e+03
 6.6089802e+00   6.2165961e+03
 6.6136599e+00   6.2342435e+03
 6.6183400e+00   6.2377236e+03
 6.6230202e+00   6.2338111e+03
 6.6276999e+00   6.2450224e+03
 6.6323800e+00   6.2827903e+03
 6.6370602e+00   6.2910063e+03
 6.6417398e+00   6.2810194e+03
 6.6464200e+00   6.3634032e+03
 6.6511002e+00   6.3196670e+03
 6.6557798e+00   6.3496004e+03
 6.6604600e+00   6.3694889e+03
 6.6651402e+00   6.3927411e+03
 6.6698198e+00   6.3511567e+03
 6.6745000e+00   6.4011004e+03
 6.6791801e+00   6.3766377e+03
 6.6838598e+00   6.4407726e+03
 6.6885400e+00   6.3717236e+03
 6.6932201e+00   6.4499321e+03
 6.6978998e+00   6.3922467e+03
 6.7025800e+00   6.4510062e+03
 6.7072601e+00   6.4582366e+03
 6.7119398e+00   6.4518226e+03
 6.7166200e+00   6.4681010e+03
 6.7213001e+00   6.4762640e+03
 6.7259798e+00   6.4993012e+03
 6.7306600e+00   6.5009882e+03
 6.7353401e+00   6.5704737e+03
 6.7400198e+00   6.5340986e+03
 6.7447000e+00   6.5961343e+03
 6.7493801e+00   6.5528830e+03
 6.7540598e+00   6.6297916e+03
 6.7587399e+00   6.6219710e+03
 6.7634201e+00   6.6446626e+03
 6.7680998e+00   6.6439094e+03
 6.7727799e+00   6.7048541e+03
 6.7774601e+00   6.6354507e+03
 6.7821398e+00   6.6924068e+03
 6.7868199e+00   6.6974456e+03
 6.7915001e+00   6.7117448e+03
 6.7961798e+00   6.7179972e+03
 6.8008599e+00   6.7075201e+03
 6.8055401e+00   6.7119394e+03
 6.8102198e+00   6.7357633e+03
 6.8148999e+00   6.7705364e+03
 6.8195801e+00   6.8005592e+03
 6.8242602e+00   6.8042109e+03
 6.8289399e+00   6.8027172e+03
 6.8336201e+00   6.8746668e+03
 6.8383002e+00   6.8428246e+03
 6.8429799e+00   6.8741067e+03
 6.8476601e+00   6.9356512e+03
 6.8523402e+00   6.9094778e+03
 6.8570199e+00   6.9702521e+03
 6.8617001e+00   7.0105709e+03
 6.8663802e+00   7.0364464e+03
 6.8710599e+00   7.1060534e+03
 6.8757401e+00   7.1695394e+03
 6.8804202e+00   7.2172540e+03
 6.8850999e+00   7.3065473e+03
 6.8897800e+00   7.4044137e+03
 6.8944602e+00   7.4697973e+03
 6.8991399e+00   7.6177514e+03
 6.9038200e+00   7.6667017e+03
 6.9085002e+00   7.8176046e+03
 6.9131799e+00   7.8738192e+03
 6.9178600e+00   8.0757224e+03
 6.9225402e+00   8.1044453e+03
 6.9272199e+00   8.2352446e+03
 6.9319000e+00   8.2363222e+03
 6.9365802e+00   8.3518197e+03
 6.9412599e+00   8.3026199e+03
 6.9459400e+00   8.3946272e+03
 6.9506202e+00   8.3655836e+03
 6.9552999e+00   8.3886945e+03
 6.9599800e+00   8.3549863e+03
 6.9646602e+00   8.3053199e+03
 6.9693398e+00   8.1886739e+03
 6.9740200e+00   8.2222142e+03
 6.9787002e+00   8.1329671e+03
 6.9833798e+00   8.0820841e+03
 6.9880600e+00   8.0446792e+03
 6.9927402e+00   7.9724629e+03
 6.9974198e+00   7.9232367e+03
 7.0021000e+00   7.8289643e+03
 7.0067801e+00   7.8281299e+03
 7.0114598e+00   7.7951241e+03
 7.0161400e+00   7.7367770e+03
 7.0208201e+00   7.6631601e+03
 7.0254998e+00   7.6621524e+03
 7.0301800e+00   7.5838399e+03
 7.0348601e+00   7.5853650e+03
 7.0395398e+00   7.5480070e+03
 7.0442200e+00   7.5338437e+03
 7.0489001e+00   7.4747114e+03
 7.0535798e+00   7.4820131e+03
 7.0582600e+00   7.4378160e+03
 7.0629401e+00   7.4944517e+03
 7.0676198e+00   7.3981580e+03
 7.0723000e+00   7.4005116e+03
 7.0769801e+00   7.2968003e+03
 7.0816598e+00   7.2299456e+03
 7.0863400e+00   7.1810092e+03
 7.0910201e+00   7.0702984e+03
 7.0956998e+00   7.0346499e+03
 7.1003799e+00   6.9896948e+03
 7.1050601e+00   6.9537962e+03
 7.1097398e+00   6.8885149e+03
 7.1144199e+00   6.8910605e+03
 7.1191001e+00   6.8425818e+03
 7.1237798e+00   6.8621912e+03
 7.1284599e+00   6.7962814e+03
 7.1331401e+00   6.7939483e+03
 7.1378198e+00   6.7847765e+03
 7.1424999e+00   6.7773696e+03
 7.1471801e+00   6.7548055e+03
 7.1518602e+00   6.7728897e+03
 7.1565399e+00   6.7276583e+03
 7.1612201e+00   6.7358397e+03
 7.1659002e+00   6.7112789e+03
 7.1705799e+00   6.7017792e+03
 7.1752601e+00   6.7163079e+03
 7.1799402e+00   6.7009572e+03
 7.1846199e+00   6.6944621e+03
 7.1893001e+00   6.6696225e+03
 7.1939802e+00   6.6846678e+03
 7.1986599e+00   6.6604891e+03
 7.2033401e+00   6.6622733e+03
 7.2080202e+00   6.6395645e+03
 7.2126999e+00   6.6778736e+03
 7.2173800e+00   6.6262504e+03
 7.2220602e+00   6.6445684e+03
 7.2267399e+00   6.6490232e+03
 7.2314200e+00   6.6466598e+03
 7.2361002e+00   6.6491933e+03
 7.2407799e+00   6.6648063e+03
 7.2454600e+00   6.6485040e+03
 7.2501402e+00   6.6634072e+03
 7.2548199e+00   6.6695427e+03
 7.2595000e+00   6.6787326e+03
 7.2641802e+00   6.7051686e+03
 7.2688599e+00   6.6739605e+03
 7.2735400e+00   6.6880522e+03
 7.2782202e+00   6.6924639e+03
 7.2828999e+00   6.6952841e+03
 7.2875800e+00   6.6992444e+03
 7.2922602e+00   6.6821457e+03
 7.2969398e+00   6.6715621e+03
 7.3016200e+00   6.6821444e+03
 7.3063002e+00   6.6787828e+03
 7.3109798e+00   6.7018523e+03
 7.3156600e+00   6.6980942e+03
 7.3203402e+00   6.7149982e+03
 7.3250198e+00   6.7301610e+03
 7.3297000e+00   6.7442057e+03
 7.3343801e+00   6.7557790e+03
 7.3390598e+00   6.7973074e+03
 7.3437400e+00   6.8046228e+03
 7.3484201e+00   6.8068695e+03
 7.3530998e+00   6.8305631e+03
 7.3577800e+00   6.8332122e+03
 7.3624601e+00   6.8543068e+03
 7.3671398e+00   6.8693153e+03
 7.3718200e+00   6.8901300e+03
 7.3765001e+00   6.8971295e+03
 7.3811798e+00   6.9106973e+03
 7.3858600e+00   6.9307084e+03
 7.3905401e+00   6.9365067e+03
 7.3952198e+00   6.9562764e+03
 7.3999000e+00   6.9913267e+03
 7.4045801e+00   7.0205081e+03
 7.4092598e+00   7.0389447e+03
 7.4139400e+00   7.0996573e+03
 7.4186201e+00   7.1048470e+03
 7.4232998e+00   7.1475878e+03
 7.4279799e+00   7.1911757e+03
 7.4326601e+00   7.2225765e+03
 7.4373398e+00   7.2731873e+03
 7.4420199e+00   7.3153249e+03
 7.4467001e+00   7.3330022e+03
 7.4513798e+00   7.3823809e+03
 7.4560599e+00   7.4157853e+03
 7.4607401e+00   7.4129068e+03
 7.4654198e+00   7.4429645e+03
 7.4700999e+00   7.4224470e+03
 7.4747801e+00   7.4554542e+03
 7.4794598e+00   7.4209709e+03
 7.4841399e+00   7.4188837e+03
 7.4888201e+00   7.3958451e+03
 7.4935002e+00   7.3622624e+03
 7.4981799e+00   7.3219243e+03
 7.5028601e+00   7.3165661e+03
 7.5075402e+00   7.2695613e+03
 7.5122199e+00   7.2502187e+03
 7.5169001e+00   7.2001327e+03
 7.5215802e+00   7.1809863e+03
 7.5262599e+00   7.1597010e+03
 7.5309401e+00   7.1109508e+03
 7.5356202e+00   7.1036270e+03
 7.5402999e+00   7.0803405e+03
 7.5449800e+00   7.0551247e+03
 7.5496602e+00   7.0378158e+03
 7.5543399e+00   7.0121645e+03
 7.5590200e+00   6.9826882e+03
 7.5637002e+00   7.0030001e+03
 7.5683799e+00   6.9532738e+03
 7.5730600e+00   6.9412049e+03
 7.5777402e+00   6.9148423e+03
 7.5824199e+00   6.8975939e+03
 7.5871000e+00   6.8665193e+03
 7.5917802e+00   6.8657125e+03
 7.5964599e+00   6.8370593e+03
 7.6011400e+00   6.8102065e+03
 7.6058202e+00   6.7523197e+03
 7.6104999e+00   6.7200192e+03
 7.6151800e+00   6.6924609e+03
 7.6198602e+00   6.5978995e+03
 7.6245399e+00   6.5759104e+03
 7.6292200e+00   6.4837069e+03
 7.6339002e+00   6.4901400e+03
 7.6385798e+00   6.3980046e+03
 7.6432600e+00   6.3849623e+03
 7.6479402e+00   6.3331974e+03
 7.6526198e+00   6.3176266e+03
 7.6573000e+00   6.2728749e+03
 7.6619802e+00   6.2600249e+03
 7.6666598e+00   6.2262928e+03
 7.6713400e+00   6.2169178e+03
 7.6760201e+00   6.1814727e+03
 7.6806998e+00   6.1820559e+03
 7.6853800e+00   6.1546597e+03
 7.6900601e+00   6.1412773e+03
 7.6947398e+00   6.1229682e+03
 7.6994200e+00   6.1068327e+03
 7.7041001e+00   6.0890297e+03
 7.7087798e+00   6.0777784e+03
 7.7134600e+00   6.0704804e+03
 7.7181401e+00   6.0325183e+03
 7.7228198e+00   6.0447110e+03
 7.7275000e+00   6.0143297e+03
 7.7321801e+00   6.0217142e+03
 7.7368598e+00   5.9986023e+03
 7.7415400e+00   5.9939303e+03
 7.7462201e+00   5.9855675e+03
 7.7508998e+00   5.9853265e+03
 7.7555799e+00   5.9340623e+03
 7.7602601e+00   5.9539749e+03
 7.7649398e+00   5.9236044e+03
 7.7696199e+00   5.9227939e+03
 7.7743001e+00   5.9139699e+03
 7.7789798e+00   5.8775032e+03
 7.7836599e+00   5.8842318e+03
 7.7883401e+00   5.8588119e+03
 7.7930198e+00   5.8638288e+03
 7.7976999e+00   5.8531274e+03
 7.8023801e+00   5.8296523e+03
 7.8070598e+00   5.8111263e+03
 7.8117399e+00   5.8249208e+03
 7.8164201e+00   5.7882590e+03
 7.8211002e+00   5.8086587e+03
 7.8257799e+00   5.7925748e+03
 7.8304601e+00   5.7758476e+03
 7.8351402e+00   5.7913883e+03
 7.8398199e+00   5.7622238e+03
 7.8445001e+00   5.7541997e+03
 7.8491802e+00   5.7702469e+03
 7.8538599e+00   5.7451685e+03
 7.8585401e+00   5.7355878e+03
 7.8632202e+00   5.7461829e+03
 7.8678999e+00   5.7073134e+03
 7.8725801e+00   5.7295689e+03
 7.8772602e+00   5.7160696e+03
 7.8819399e+00   5.6997904e+03
 7.8866200e+00   5.7057286e+03
 7.8913002e+00   5.7022512e+03
 7.8959799e+00   5.6834889e+03
 7.9006600e+00   5.6810663e+03
 7.9053402e+00   5.6665228e+03
 7.9100199e+00   5.6880170e+03
 7.9147000e+00   5.6477453e+03
 7.9193802e+00   5.6474747e+03
 7.9240599e+00   5.6415680e+03
 7.9287400e+00   5.6319845e+03
 7.9334202e+00   5.6366955e+03
 7.9380999e+00   5.6351004e+03
 7.9427800e+00   5.6023059e+03
 7.9474602e+00   5.6270460e+03
 7.9521399e+00   5.6060168e+03
 7.9568200e+00   5.5931553e+03
 7.9615002e+00   5.6088558e+03
 7.9661798e+00   5.5956016e+03
 7.9708600e+00   5.5821736e+03
 7.9755402e+00   5.5844262e+03
 7.9802198e+00   5.5555345e+03
 7.9849000e+00   5.5706603e+03
 7.9895802e+00   5.5796329e+03
 7.9942598e+00   5.5473420e+03
 7.9989400e+00   5.5689794e+03
 8.0036201e+00   5.5345066e+03
 8.0082998e+00   5.5457878e+03
 8.0129805e+00   5.5311490e+03
 8.0176601e+00   5.5271093e+03
 8.0223398e+00   5.5359313e+03
 8.0270205e+00   5.5241817e+03
 8.0317001e+00   5.5011911e+03
 8.0363798e+00   5.5279962e+03
 8.0410604e+00   5.5100857e+03
 8.0457401e+00   5.5052040e+03
 8.0504198e+00   5.5076062e+03
 8.0551004e+00   5.4989056e+03
 8.0597801e+00   5.5381531e+03
 8.0644598e+00   5.5193205e+03
 8.0691404e+00   5.5336234e+03
 8.0738201e+00   5.5644271e+03
 8.0784998e+00   5.5529968e+03
 8.0831804e+00   5.5614549e+03
 8.0878601e+00   5.6047465e+03
 8.0925398e+00   5.5705885e+03
 8.0972204e+00   5.6363530e+03
 8.1019001e+00   5.6376584e+03
 8.1065798e+00   5.6525135e+03
 8.1112604e+00   5.6613708e+03
 8.1159401e+00   5.6774249e+03
 8.1206198e+00   5.6701390e+03
 8.1253004e+00   5.6805464e+03
 8.1299801e+00   5.6976360e+03
 8.1346598e+00   5.6986891e+03
 8.1393404e+00   5.6864553e+03
 8.1440201e+00   5.6673977e+03
 8.1486998e+00   5.7289111e+03
 8.1533804e+00   5.6651866e+03
 8.1580601e+00   5.7160290e+03
 8.1627398e+00   5.7019382e+03
 8.1674204e+00   5.7273125e+03
 8.1721001e+00   5.7363061e+03
 8.1767797e+00   5.7649847e+03
 8.1814604e+00   5.7561391e+03
 8.1861401e+00   5.8376251e+03
 8.1908197e+00   5.8417177e+03
 8.1955004e+00   5.8824789e+03
 8.2001801e+00   5.9504163e+03
 8.2048597e+00   5.9949972e+03
 8.2095404e+00   6.0694066e+03
 8.2142200e+00   6.1383466e+03
 8.2188997e+00   6.1987984e+03
 8.2235804e+00   6.3122215e+03
 8.2282600e+00   6.4032145e+03
 8.2329397e+00   6.4826970e+03
 8.2376204e+00   6.6042435e+03
 8.2423000e+00   6.6688727e+03
 8.2469797e+00   6.7874961e+03
 8.2516603e+00   6.8843941e+03
 8.2563400e+00   6.9912600e+03
 8.2610197e+00   7.0821392e+03
 8.2657003e+00   7.1920116e+03
 8.2703800e+00   7.2930964e+03
 8.2750597e+00   7.4094544e+03
 8.2797403e+00   7.4948461e+03
 8.2844200e+00   7.5652903e+03
 8.2890997e+00   7.6231933e+03
 8.2937803e+00   7.6284087e+03
 8.2984600e+00   7.6621449e+03
 8.3031397e+00   7.6002214e+03
 8.3078203e+00   7.5589414e+03
 8.3125000e+00   7.4427587e+03
 8.3171797e+00   7.3358913e+03
 8.3218603e+00   7.1419342e+03
 8.3265400e+00   7.0088844e+03
 8.3312197e+00   6.8147761e+03
 8.3359003e+00   6.6821738e+03
 8.3405800e+00   6.4791220e+03
 8.3452597e+00   6.3606292e+03
 8.3499403e+00   6.2056188e+03
 8.3546200e+00   6.1277976e+03
 8.3592997e+00   6.0362948e+03
 8.3639803e+00   6.0006272e+03
 8.3686600e+00   5.9948086e+03
 8.3733397e+00   6.0694345e+03
 8.3780203e+00   6.2091134e+03
 8.3827000e+00   6.4401254e+03
 8.3873796e+00   6.6875748e+03
 8.3920603e+00   7.1775070e+03
 8.3967400e+00   7.7499608e+03
 8.4014196e+00   8.1966985e+03
 8.4061003e+00   8.5860405e+03
 8.4107800e+00   8.5213782e+03
 8.4154596e+00   8.2144473e+03
 8.4201403e+00   7.8386965e+03
 8.4248199e+00   7.1693781e+03
 8.4294996e+00   6.6735427e+03
 8.4341803e+00   6.3224571e+03
 8.4388599e+00   6.1334473e+03
 8.4435396e+00   5.9793437e+03
 8.4482203e+00   5.8395382e+03
 8.4528999e+00   5.7783114e+03
 8.4575796e+00   5.7442861e+03
 8.4622602e+00   5.7324988e+03
 8.4669399e+00   5.7564233e+03
 8.4716196e+00   5.7659372e+03
 8.4763002e+00   5.7983580e+03
 8.4809799e+00   5.8164157e+03
 8.4856596e+00   5.8583439e+03
 8.4903402e+00   5.8894821e+03
 8.4950199e+00   5.9586496e+03
 8.4996996e+00   5.9987887e+03
 8.5043802e+00   6.0769124e+03
 8.5090599e+00   6.1074313e+03
 8.5137396e+00   6.2027345e+03
 8.5184202e+00   6.2488154e+03
 8.5230999e+00   6.3608216e+03
 8.5277796e+00   6.4281000e+03
 8.5324602e+00   6.5326396e+03
 8.5371399e+00   6.6126010e+03
 8.5418196e+00   6.7114330e+03
 8.5465002e+00   6.7961806e+03
 8.5511799e+00   6.9006033e+03
 8.5558596e+00   6.9965982e+03
 8.5605402e+00   7.0541781e+03
 8.5652199e+00   7.1484665e+03
 8.5698996e+00   7.1706453e+03
 8.5745802e+00   7.2500202e+03
 8.5792599e+00   7.2594479e+03
 8.5839396e+00   7.2948058e+03
 8.5886202e+00   7.2542747e+03
 8.5932999e+00   7.2424187e+03
 8.5979795e+00   7.1765466e+03
 8.6026602e+00   7.1210653e+03
 8.6073399e+00   7.0460926e+03
 8.6120195e+00   6.9542425e+03
 8.6167002e+00   6.8664975e+03
 8.6213799e+00   6.7535037e+03
 8.6260595e+00   6.6509909e+03
 8.6307402e+00   6.5484163e+03
 8.6354198e+00   6.4633319e+03
 8.6400995e+00   6.3765303e+03
 8.6447802e+00   6.2893382e+03
 8.6494598e+00   6.1825553e+03
 8.6541405e+00   6.1063550e+03
 8.6588202e+00   6.0232586e+03
 8.6634998e+00   5.9631166e+03
 8.6681805e+00   5.8874350e+03
 8.6728601e+00   5.8333652e+03
 8.6775398e+00   5.7626726e+03
 8.6822205e+00   5.7127021e+03
 8.6869001e+00   5.6680686e+03
 8.6915798e+00   5.6297955e+03
 8.6962605e+00   5.6030866e+03
 8.7009401e+00   5.5568947e+03
 8.7056198e+00   5.5247638e+03
 8.7103004e+00   5.4943294e+03
 8.7149801e+00   5.4816960e+03
 8.7196598e+00   5.4459609e+03
 8.7243404e+00   5.4174489e+03
 8.7290201e+00   5.3995285e+03
 8.7336998e+00   5.3892538e+03
 8.7383804e+00   5.3626747e+03
 8.7430601e+00   5.3540434e+03
 8.7477398e+00   5.3119752e+03
 8.7524204e+00   5.3202038e+03
 8.7571001e+00   5.2930295e+03
 8.7617798e+00   5.2860850e+03
 8.7664604e+00   5.2715267e+03
 8.7711401e+00   5.2565567e+03
 8.7758198e+00   5.2455876e+03
 8.7805004e+00   5.2232481e+03
 8.7851801e+00   5.2177346e+03
 8.7898598e+00   5.2143138e+03
 8.7945404e+00   5.2019654e+03
 8.7992201e+00   5.1866727e+03
 8.8038998e+00   5.1925229e+03
 8.8085804e+00   5.1715729e+03
 8.8132601e+00   5.1860582e+03
 8.8179398e+00   5.1511820e+03
 8.8226204e+00   5.1539264e+03
 8.8273001e+00   5.1272866e+03
 8.8319798e+00   5.1277790e+03
 8.8366604e+00   5.1129744e+03
 8.8413401e+00   5.1088196e+03
 8.8460197e+00   5.0898324e+03
 8.8507004e+00   5.0766042e+03
 8.8553801e+00   5.0601604e+03
 8.8600597e+00   5.0545654e+03
 8.8647404e+00   5.0460971e+03
 8.8694201e+00   5.0334145e+03
 8.8740997e+00   5.0293126e+03
 8.8787804e+00   5.0110422e+03
 8.8834600e+00   5.0102859e+03
 8.8881397e+00   4.9859957e+03
 8.8928204e+00   4.9886819e+03
 8.8975000e+00   4.9780488e+03
 8.9021797e+00   4.9889339e+03
 8.9068604e+00   4.9696604e+03
 8.9115400e+00   4.9768883e+03
 8.9162197e+00   4.9736825e+03
 8.9209003e+00   4.9787194e+03
 8.9255800e+00   4.9718563e+03
 8.9302597e+00   4.9671720e+03
 8.9349403e+00   4.9597424e+03
 8.9396200e+00   4.9578765e+03
 8.9442997e+00   4.9599801e+03
 8.9489803e+00   4.9497651e+03
 8.9536600e+00   4.9776770e+03
 8.9583397e+00   4.9566856e+03
 8.9630203e+00   4.9565823e+03
 8.9677000e+00   4.9563131e+03
 8.9723797e+00   4.9646825e+03
 8.9770603e+00   4.9598608e+03
 8.9817400e+00   4.9649339e+03
 8.9864197e+00   4.9557304e+03
 8.9911003e+00   4.9661314e+03
 8.9957800e+00   4.9486625e+03
 9.0004597e+00   4.9553487e+03
 9.0051403e+00   4.9618583e+03
 9.0098200e+00   4.9470189e+03
 9.0144997e+00   4.9450222e+03
 9.0191803e+00   4.9432345e+03
 9.0238600e+00   4.9321898e+03
 9.0285397e+00   4.9291729e+03
 9.0332203e+00   4.9282156e+03
 9.0379000e+00   4.9319224e+03
 9.0425797e+00   4.9283821e+03
 9.0472603e+00   4.9230971e+03
 9.0519400e+00   4.9358119e+03
 9.0566196e+00   4.9114663e+03
 9.0613003e+00   4.9243683e+03
 9.0659800e+00   4.9119130e+03
 9.0706596e+00   4.9197440e+03
 9.0753403e+00   4.9135690e+03
 9.0800200e+00   4.9169955e+03
 9.0846996e+00   4.9120719e+03
 9.0893803e+00   4.9154404e+03
 9.0940599e+00   4.9130908e+03
 9.0987396e+00   4.9381242e+03
 9.1034203e+00   4.9304436e+03
 9.1080999e+00   4.9328449e+03
 9.1127796e+00   4.9408185e+03
 9.1174603e+00   4.9481437e+03
 9.1221399e+00   4.9614426e+03
 9.1268196e+00   4.9497851e+03
 9.1315002e+00   4.9746519e+03
 9.1361799e+00   4.9760028e+03
 9.1408596e+00   4.9869615e+03
 9.1455402e+00   4.9893736e+03
 9.1502199e+00   5.0014397e+03
 9.1548996e+00   5.0097885e+03
 9.1595802e+00   5.0295743e+03
 9.1642599e+00   5.0317686e+03
 9.1689396e+00   5.0521566e+03
 9.1736202e+00   5.0613117e+03
 9.1782999e+00   5.0720467e+03
 9.1829796e+00   5.1064581e+03
 9.1876602e+00   5.0990882e+03
 9.1923399e+00   5.1268473e+03
 9.1970196e+00   5.1302262e+03
 9.2017002e+00   5.1591718e+03
 9.2063799e+00   5.1659375e+03
 9.2110596e+00   5.1899981e+03
 9.2157402e+00   5.2079459e+03
 9.2204199e+00   5.2101594e+03
 9.2250996e+00   5.2239947e+03
 9.2297802e+00   5.2483827e+03
 9.2344599e+00   5.2451910e+03
 9.2391396e+00   5.2743138e+03
 9.2438202e+00   5.2839517e+03
 9.2484999e+00   5.2950402e+03
 9.2531796e+00   5.3182242e+03
 9.2578602e+00   5.3294147e+03
 9.2625399e+00   5.3528099e+03
 9.2672195e+00   5.3724721e+03
 9.2719002e+00   5.3992481e+03
 9.2765799e+00   5.4207983e+03
 9.2812595e+00   5.4466666e+03
 9.2859402e+00   5.4724286e+03
 9.2906199e+00   5.5050210e+03
 9.2952995e+00   5.5274039e+03
 9.2999802e+00   5.5295487e+03
 9.3046598e+00   5.5607577e+03
 9.3093395e+00   5.5859568e+03
 9.3140202e+00   5.6123366e+03
 9.3186998e+00   5.6280954e+03
 9.3233805e+00   5.6458997e+03
 9.3280602e+00   5.6693144e+03
 9.3327398e+00   5.6888089e+03
 9.3374205e+00   5.6877065e+03
 9.3421001e+00   5.6944928e+03
 9.3467798e+00   5.6801385e+03
 9.3514605e+00   5.6972426e+03
 9.3561401e+00   5.6691854e+03
 9.3608198e+00   5.6512422e+03
 9.3655005e+00   5.6446165e+03
 9.3701801e+00   5.6008068e+03
 9.3748598e+00   5.5823705e+03
 9.3795404e+00   5.5569907e+03
 9.3842201e+00   5.4966017e+03
 9.3888998e+00   5.4634369e+03
 9.3935804e+00   5.4301326e+03
 9.3982601e+00   5.3858668e+03
 9.4029398e+00   5.3549274e+03
 9.4076204e+00   5.3198079e+03
 9.4123001e+00   5.2937583e+03
 9.4169798e+00   5.2701104e+03
 9.4216604e+00   5.2343818e+03
 9.4263401e+00   5.2229908e+03
 9.4310198e+00   5.1932961e+03
 9.4357004e+00   5.1615677e+03
 9.4403801e+00   5.1560402e+03
 9.4450598e+00   5.1344000e+03
 9.4497404e+00   5.1360869e+03
 9.4544201e+00   5.1101275e+03
 9.4590998e+00   5.1065056e+03
 9.4637804e+00   5.1152673e+03
 9.4684601e+00   5.0980389e+03
 9.4731398e+00   5.1021706e+03
 9.4778204e+00   5.1101668e+03
 9.4825001e+00   5.1117574e+03
 9.4871798e+00   5.1122795e+03
 9.4918604e+00   5.1121471e+03
 9.4965401e+00   5.1109855e+03
 9.5012197e+00   5.1259399e+03
 9.5059004e+00   5.1181862e+03
 9.5105801e+00   5.1273753e+03
 9.5152597e+00   5.1334926e+03
 9.5199404e+00   5.1309528e+03
 9.5246201e+00   5.1303787e+03
 9.5292997e+00   5.1214511e+03
 9.5339804e+00   5.1423019e+03
 9.5386600e+00   5.1427818e+03
 9.5433397e+00   5.1404660e+03
 9.5480204e+00   5.1531986e+03
 9.5527000e+00   5.1764633e+03
 9.5573797e+00   5.1647600e+03
 9.5620604e+00   5.1920182e+03
 9.5667400e+00   5.1969392e+03
 9.5714197e+00   5.2056069e+03
 9.5761003e+00   5.2242088e+03
 9.5807800e+00   5.2300125e+03
 9.5854597e+00   5.2526948e+03
 9.5901403e+00   5.2755010e+03
 9.5948200e+00   5.2853257e+03
 9.5994997e+00   5.3099005e+03
 9.6041803e+00   5.3156071e+03
 9.6088600e+00   5.3322258e+03
 9.6135397e+00   5.3380114e+03
 9.6182203e+00   5.3522153e+03
 9.6229000e+00   5.3518465e+03
 9.6275797e+00   5.3658369e+03
 9.6322603e+00   5.3707312e+03
 9.6369400e+00   5.3626215e+03
 9.6416197e+00   5.3780078e+03
 9.6463003e+00   5.3703540e+03
 9.6509800e+00   5.3808181e+03
 9.6556597e+00   5.3894367e+03
 9.6603403e+00   5.3996775e+03
 9.6650200e+00   5.4167021e+03
 9.6696997e+00   5.4219216e+03
 9.6743803e+00   5.4320990e+03
 9.6790600e+00   5.4451215e+03
 9.6837397e+00   5.4566070e+03
 9.6884203e+00   5.4732868e+03
 9.6931000e+00   5.4592730e+03
 9.6977797e+00   5.4693583e+03
 9.7024603e+00   5.4566000e+03
 9.7071400e+00   5.4359162e+03
 9.7118196e+00   5.4139950e+03
 9.7165003e+00   5.3835115e+03
 9.7211800e+00   5.3540404e+03
 9.7258596e+00   5.3300820e+03
 9.7305403e+00   5.2899405e+03
 9.7352200e+00   5.2661330e+03
 9.7398996e+00   5.2429840e+03
 9.7445803e+00   5.1982603e+03
 9.7492599e+00   5.1991986e+03
 9.7539396e+00   5.1699650e+03
 9.7586203e+00   5.1429355e+03
 9.7632999e+00   5.1382578e+03
 9.7679796e+00   5.1223599e+03
 9.7726603e+00   5.1252023e+03
 9.7773399e+00   5.1408069e+03
 9.7820196e+00   5.1201105e+03
 9.7867002e+00   5.1521013e+03
 9.7913799e+00   5.1589182e+03
 9.7960596e+00   5.1671463e+03
 9.8007402e+00   5.1893434e+03
 9.8054199e+00   5.2269944e+03
 9.8100996e+00   5.2826610e+03
 9.8147802e+00   5.3573745e+03
 9.8194599e+00   5.4790254e+03
 9.8241396e+00   5.6514651e+03
 9.8288202e+00   5.9115974e+03
 9.8334999e+00   6.4025286e+03
 9.8381796e+00   7.0992659e+03
 9.8428602e+00   8.0576618e+03
 9.8475399e+00   9.4562787e+03
 9.8522196e+00   1.0432766e+04
 9.8569002e+00   1.1794252e+04
 9.8615799e+00   1.2308367e+04
 9.8662596e+00   1.2409875e+04
 9.8709402e+00   1.1437574e+04
 9.8756199e+00   1.0585456e+04
 9.8802996e+00   9.0233299e+03
 9.8849802e+00   7.8707959e+03
 9.8896599e+00   7.0470009e+03
 9.8943396e+00   6.4858585e+03
 9.8990202e+00   6.0333993e+03
 9.9036999e+00   5.7499381e+03
 9.9083796e+00   5.5864199e+03
 9.9130602e+00   5.4654032e+03
 9.9177399e+00   5.4245748e+03
 9.9224195e+00   5.3792991e+03
 9.9271002e+00   5.3516028e+03
 9.9317799e+00   5.3365866e+03
 9.9364595e+00   5.3335125e+03
 9.9411402e+00   5.3195279e+03
 9.9458199e+00   5.3362829e+03
 9.9504995e+00   5.3303998e+03
 9.9551802e+00   5.3190480e+03
 9.9598598e+00   5.3229874e+03
 9.9645395e+00   5.3422676e+03
 9.9692202e+00   5.3265333e+03
 9.9738998e+00   5.3345539e+03
 9.9785805e+00   5.3243747e+03
 9.9832602e+00   5.3414980e+03
 9.9879398e+00   5.3504748e+03
 9.9926205e+00   5.3457265e+03
 9.9973001e+00   5.3507562e+03
 1.0001980e+01   5.3479595e+03
 1.0006660e+01   5.3320694e+03
 1.0011340e+01   5.3291137e+03
 1.0016020e+01   5.3173852e+03
 1.0020700e+01   5.3189095e+03
 1.0025380e+01   5.3043282e+03
 1.0030060e+01   5.2901251e+03
 1.0034740e+01   5.2813526e+03
 1.0039420e+01   5.2655111e+03
 1.0044100e+01   5.2517763e+03
 1.0048780e+01   5.2543711e+03
 1.0053460e+01   5.2309408e+03
 1.0058140e+01   5.2231629e+03
 1.0062820e+01   5.2232547e+03
 1.0067500e+01   5.2239694e+03
 1.0072180e+01   5.2075422e+03
 1.0076860e+01   5.2052587e+03
 1.0081540e+01   5.1933579e+03
 1.0086220e+01   5.1939723e+03
 1.0090900e+01   5.1872633e+03
 1.0095580e+01   5.1893487e+03
 1.0100260e+01   5.1895663e+03
 1.0104940e+01   5.1943532e+03
 1.0109620e+01   5.1922042e+03
 1.0114300e+01   5.1861108e+03
 1.0118980e+01   5.2038906e+03
 1.0123660e+01   5.1924468e+03
 1.0128340e+01   5.2011378e+03
 1.0133020e+01   5.2084989e+03
 1.0137700e+01   5.2198690e+03
 1.0142380e+01   5.2188498e+03
 1.0147060e+01   5.2343284e+03
 1.0151740e+01   5.2443924e+03
 1.0156420e+01   5.2625770e+03
 1.0161100e+01   5.2600683e+03
 1.0165780e+01   5.2852792e+03
 1.0170460e+01   5.3098345e+03
 1.0175140e+01   5.3306706e+03
 1.0179820e+01   5.3530210e+03
 1.0184500e+01   5.3687556e+03
 1.0189180e+01   5.3862797e+03
 1.0193860e+01   5.4408395e+03
 1.0198540e+01   5.4625107e+03
 1.0203220e+01   5.4847036e+03
 1.0207900e+01   5.5228708e+03
 1.0212580e+01   5.5424355e+03
 1.0217260e+01   5.5874023e+03
 1.0221940e+01   5.6088187e+03
 1.0226620e+01   5.6185372e+03
 1.0231300e+01   5.6681474e+03
 1.0235980e+01   5.6880485e+03
 1.0240660e+01   5.6967281e+03
 1.0245340e+01   5.7063690e+03
 1.0250020e+01   5.7099676e+03
 1.0254700e+01   5.7438356e+03
 1.0259380e+01   5.7680737e+03
 1.0264060e+01   5.8229404e+03
 1.0268740e+01   5.9483831e+03
 1.0273420e+01   6.1140553e+03
 1.0278100e+01   6.4199654e+03
 1.0282780e+01   6.8038708e+03
 1.0287460e+01   7.3240062e+03
 1.0292140e+01   7.9977216e+03
 1.0296820e+01   8.4479277e+03
 1.0301500e+01   8.7085218e+03
 1.0306180e+01   8.4647378e+03
 1.0310860e+01   8.2920124e+03
 1.0315540e+01   7.7019026e+03
 1.0320220e+01   6.9824740e+03
 1.0324900e+01   6.5047695e+03
 1.0329580e+01   6.0831942e+03
 1.0334260e+01   5.7587435e+03
 1.0338940e+01   5.5379068e+03
 1.0343620e+01   5.3965356e+03
 1.0348300e+01   5.3270326e+03
 1.0352980e+01   5.2763598e+03
 1.0357660e+01   5.2570744e+03
 1.0362340e+01   5.2231535e+03
 1.0367020e+01   5.2205432e+03
 1.0371700e+01   5.2043567e+03
 1.0376380e+01   5.2040650e+03
 1.0381060e+01   5.1967277e+03
 1.0385740e+01   5.2190132e+03
 1.0390420e+01   5.2044068e+03
 1.0395100e+01   5.2071732e+03
 1.0399780e+01   5.2182047e+03
 1.0404460e+01   5.2182970e+03
 1.0409140e+01   5.2408354e+03
 1.0413820e+01   5.2256039e+03
 1.0418500e+01   5.2453908e+03
 1.0423180e+01   5.2549177e+03
 1.0427860e+01   5.2613075e+03
 1.0432540e+01   5.2701259e+03
 1.0437220e+01   5.2964158e+03
 1.0441900e+01   5.3079363e+03
 1.0446580e+01   5.3276348e+03
 1.0451260e+01   5.3382819e+03
 1.0455940e+01   5.3447014e+03
 1.0460620e+01   5.3628091e+03
 1.0465300e+01   5.3803826e+03
 1.0469980e+01   5.4045292e+03
 1.0474660e+01   5.4132163e+03
 1.0479340e+01   5.4247742e+03
 1.0484020e+01   5.4301202e+03
 1.0488700e+01   5.4192875e+03
 1.0493380e+01   5.4347969e+03
 1.0498060e+01   5.4330375e+03
 1.0502740e+01   5.4239911e+03
 1.0507420e+01   5.4226609e+03
 1.0512100e+01   5.4051578e+03
 1.0516780e+01   5.3867401e+03
 1.0521460e+01   5.3746276e+03
 1.0526140e+01   5.3590857e+03
 1.0530820e+01   5.3572349e+03
 1.0535500e+01   5.3538381e+03
 1.0540180e+01   5.3055315e+03
 1.0544860e+01   5.3115946e+03
 1.0549540e+01   5.2835641e+03
 1.0554220e+01   5.2634936e+03
 1.0558900e+01   5.2442335e+03
 1.0563580e+01   5.2310646e+03
 1.0568260e+01   5.2236717e+03
 1.0572940e+01   5.1973433e+03
 1.0577620e+01   5.1838949e+03
 1.0582300e+01   5.1629240e+03
 1.0586980e+01   5.1556644e+03
 1.0591660e+01   5.1406478e+03
 1.0596340e+01   5.1237719e+03
 1.0601020e+01   5.1164825e+03
 1.0605700e+01   5.1059589e+03
 1.0610380e+01   5.0990475e+03
 1.0615060e+01   5.0829818e+03
 1.0619740e+01   5.0752097e+03
 1.0624420e+01   5.0620141e+03
 1.0629100e+01   5.0650721e+03
 1.0633780e+01   5.0517555e+03
 1.0638460e+01   5.0501401e+03
 1.0643140e+01   5.0307822e+03
 1.0647820e+01   5.0395161e+03
 1.0652500e+01   5.0311446e+03
 1.0657180e+01   5.0344923e+03
 1.0661860e+01   5.0238851e+03
 1.0666540e+01   5.0215403e+03
 1.0671220e+01   5.0204568e+03
 1.0675900e+01   5.0266717e+03
 1.0680580e+01   5.0289925e+03
 1.0685260e+01   5.0201026e+03
 1.0689940e+01   5.0386271e+03
 1.0694620e+01   5.0310994e+03
 1.0699300e+01   5.0447664e+03
 1.0703980e+01   5.0390052e+03
 1.0708660e+01   5.0486451e+03
 1.0713340e+01   5.0529409e+03
 1.0718020e+01   5.0617720e+03
 1.0722700e+01   5.0642832e+03
 1.0727380e+01   5.0937046e+03
 1.0732060e+01   5.0980549e+03
 1.0736740e+01   5.1188524e+03
 1.0741420e+01   5.1119085e+03
 1.0746100e+01   5.1204350e+03
 1.0750780e+01   5.1370735e+03
 1.0755460e+01   5.1284581e+03
 1.0760140e+01   5.1311432e+03
 1.0764820e+01   5.1392320e+03
 1.0769500e+01   5.1487570e+03
 1.0774180e+01   5.1422441e+03
 1.0778860e+01   5.1538331e+03
 1.0783540e+01   5.1330133e+03
 1.0788220e+01   5.1452546e+03
 1.0792900e+01   5.1244789e+03
 1.0797580e+01   5.1359873e+03
 1.0802260e+01   5.1222712e+03
 1.0806940e+01   5.1173682e+03
 1.0811620e+01   5.1146976e+03
 1.0816300e+01   5.1160994e+03
 1.0820980e+01   5.1138832e+03
 1.0825660e+01   5.1134344e+03
 1.0830340e+01   5.1001534e+03
 1.0835020e+01   5.0920156e+03
 1.0839700e+01   5.0820111e+03
 1.0844380e+01   5.0813303e+03
 1.0849060e+01   5.0834936e+03
 1.0853740e+01   5.0620477e+03
 1.0858420e+01   5.0427011e+03
 1.0863100e+01   5.0478741e+03
 1.0867780e+01   5.0380578e+03
 1.0872460e+01   5.0248491e+03
 1.0877140e+01   5.0091854e+03
 1.0881820e+01   5.0006282e+03
 1.0886500e+01   4.9758592e+03
 1.0891180e+01   4.9625255e+03
 1.0895860e+01   4.9519712e+03
 1.0900540e+01   4.9504539e+03
 1.0905220e+01   4.9320392e+03
 1.0909900e+01   4.9238737e+03
 1.0914580e+01   4.9071281e+03
 1.0919260e+01   4.8976094e+03
 1.0923940e+01   4.8914585e+03
 1.0928620e+01   4.8788191e+03
 1.0933300e+01   4.8779873e+03
 1.0937980e+01   4.8677054e+03
 1.0942660e+01   4.8556133e+03
 1.0947340e+01   4.8477532e+03
 1.0952020e+01   4.8401778e+03
 1.0956700e+01   4.8313084e+03
 1.0961380e+01   4.8389619e+03
 1.0966060e+01   4.8147665e+03
 1.0970740e+01   4.8276071e+03
 1.0975420e+01   4.8020691e+03
 1.0980100e+01   4.7960506e+03
 1.0984780e+01   4.7927856e+03
 1.0989460e+01   4.7966383e+03
 1.0994140e+01   4.7883856e+03
 1.0998820e+01   4.8008941e+03
 1.1003500e+01   4.7723071e+03
 1.1008180e+01   4.7812574e+03
 1.1012860e+01   4.7961447e+03
 1.1017540e+01   4.7690800e+03
 1.1022220e+01   4.7863939e+03
 1.1026900e+01   4.7715502e+03
 1.1031580e+01   4.7762034e+03
 1.1036260e+01   4.7834171e+03
 1.1040940e+01   4.7884090e+03
 1.1045620e+01   4.7851279e+03
 1.1050300e+01   4.7922104e+03
 1.1054980e+01   4.7887558e+03
 1.1059660e+01   4.8077396e+03
 1.1064340e+01   4.7977582e+03
 1.1069020e+01   4.7946637e+03
 1.1073700e+01   4.8104494e+03
 1.1078380e+01   4.8034126e+03
 1.1083060e+01   4.8229018e+03
 1.1087740e+01   4.8198892e+03
 1.1092420e+01   4.8362156e+03
 1.1097100e+01   4.8476242e+03
 1.1101780e+01   4.8404891e+03
 1.1106460e+01   4.8675356e+03
 1.1111140e+01   4.8779892e+03
 1.1115820e+01   4.8850915e+03
 1.1120500e+01   4.9043485e+03
 1.1125180e+01   4.9080115e+03
 1.1129860e+01   4.9273181e+03
 1.1134540e+01   4.9403613e+03
 1.1139220e+01   4.9303749e+03
 1.1143900e+01   4.9583980e+03
 1.1148580e+01   4.9450591e+03
 1.1153260e+01   4.9615928e+03
 1.1157940e+01   4.9656992e+03
 1.1162620e+01   4.9576663e+03
 1.1167300e+01   4.9445468e+03
 1.1171980e+01   4.9446639e+03
 1.1176660e+01   4.9357903e+03
 1.1181340e+01   4.9401633e+03
 1.1186020e+01   4.9293658e+03
 1.1190700e+01   4.9219905e+03
 1.1195380e+01   4.9183984e+03
 1.1200060e+01   4.8935592e+03
 1.1204740e+01   4.8903906e+03
 1.1209420e+01   4.8858013e+03
 1.1214100e+01   4.8693351e+03
 1.1218780e+01   4.8597395e+03
 1.1223460e+01   4.8481689e+03
 1.1228140e+01   4.8348213e+03
 1.1232820e+01   4.8253287e+03
 1.1237500e+01   4.7987949e+03
 1.1242180e+01   4.8047049e+03
 1.1246860e+01   4.7793898e+03
 1.1251540e+01   4.7542159e+03
 1.1256220e+01   4.7495794e+03
 1.1260900e+01   4.7343465e+03
 1.1265580e+01   4.7238187e+03
 1.1270260e+01   4.7005444e+03
 1.1274940e+01   4.6881791e+03
 1.1279620e+01   4.6792432e+03
 1.1284300e+01   4.6651180e+03
 1.1288980e+01   4.6569876e+03
 1.1293660e+01   4.6488802e+03
 1.1298340e+01   4.6321236e+03
 1.1303020e+01   4.6281770e+03
 1.1307700e+01   4.6211360e+03
 1.1312380e+01   4.6060122e+03
 1.1317060e+01   4.6027050e+03
 1.1321740e+01   4.5940888e+03
 1.1326420e+01   4.6015982e+03
 1.1331100e+01   4.5920535e+03
 1.1335780e+01   4.5697601e+03
 1.1340460e+01   4.5774426e+03
 1.1345140e+01   4.5701372e+03
 1.1349820e+01   4.5525161e+03
 1.1354500e+01   4.5675651e+03
 1.1359180e+01   4.5443488e+03
 1.1363860e+01   4.5470001e+03
 1.1368540e+01   4.5372988e+03
 1.1373220e+01   4.5232022e+03
 1.1377900e+01   4.5315567e+03
 1.1382580e+01   4.5274257e+03
 1.1387260e+01   4.5251130e+03
 1.1391940e+01   4.5271657e+03
 1.1396620e+01   4.5114900e+03
 1.1401300e+01   4.5179816e+03
 1.1405980e+01   4.5198051e+03
 1.1410660e+01   4.5027705e+03
 1.1415340e+01   4.5033219e+03
 1.1420020e+01   4.4993388e+03
 1.1424700e+01   4.4968321e+03
 1.1429380e+01   4.4972353e+03
 1.1434060e+01   4.4778092e+03
 1.1438740e+01   4.4851281e+03
 1.1443420e+01   4.4757481e+03
 1.1448100e+01   4.4750995e+03
 1.1452780e+01   4.4839413e+03
 1.1457460e+01   4.4782134e+03
 1.1462140e+01   4.4721005e+03
 1.1466820e+01   4.4838061e+03
 1.1471500e+01   4.4677437e+03
 1.1476180e+01   4.4799024e+03
 1.1480860e+01   4.4693198e+03
 1.1485540e+01   4.4604094e+03
 1.1490220e+01   4.4647331e+03
 1.1494900e+01   4.4561697e+03
 1.1499580e+01   4.4577712e+03
 1.1504260e+01   4.4599698e+03
 1.1508940e+01   4.4554929e+03
 1.1513620e+01   4.4556166e+03
 1.1518300e+01   4.4467911e+03
 1.1522980e+01   4.4458478e+03
 1.1527660e+01   4.4475433e+03
 1.1532340e+01   4.4311641e+03
 1.1537020e+01   4.4363488e+03
 1.1541700e+01   4.4276144e+03
 1.1546380e+01   4.4208124e+03
 1.1551060e+01   4.4211639e+03
 1.1555740e+01   4.4148882e+03
 1.1560420e+01   4.4199010e+03
 1.1565100e+01   4.4136649e+03
 1.1569780e+01   4.4137856e+03
 1.1574460e+01   4.4195840e+03
 1.1579140e+01   4.4112793e+03
 1.1583820e+01   4.4038994e+03
 1.1588500e+01   4.4026431e+03
 1.1593180e+01   4.4075207e+03
 1.1597860e+01   4.4057569e+03
 1.1602540e+01   4.4020306e+03
 1.1607220e+01   4.4061512e+03
 1.1611900e+01   4.4013614e+03
 1.1616580e+01   4.4014399e+03
 1.1621260e+01   4.3915858e+03
 1.1625940e+01   4.3939451e+03
 1.1630620e+01   4.3891195e+03
 1.1635300e+01   4.3980478e+03
 1.1639980e+01   4.3867796e+03
 1.1644660e+01   4.3872587e+03
 1.1649340e+01   4.3933160e+03
 1.1654020e+01   4.3873352e+03
 1.1658700e+01   4.3856115e+03
 1.1663380e+01   4.3815770e+03
 1.1668060e+01   4.3730633e+03
 1.1672740e+01   4.3777701e+03
 1.1677420e+01   4.3592135e+03
 1.1682100e+01   4.3634900e+03
 1.1686780e+01   4.3561819e+03
 1.1691460e+01   4.3518046e+03
 1.1696140e+01   4.3608292e+03
 1.1700820e+01   4.3571753e+03
 1.1705500e+01   4.3520302e+03
 1.1710180e+01   4.3509971e+03
 1.1714860e+01   4.3444128e+03
 1.1719540e+01   4.3406894e+03
 1.1724220e+01   4.3428907e+03
 1.1728900e+01   4.3355864e+03
 1.1733580e+01   4.3512218e+03
 1.1738260e+01   4.3263168e+03
 1.1742940e+01   4.3384824e+03
 1.1747620e+01   4.3316300e+03
 1.1752300e+01   4.3337461e+03
 1.1756980e+01   4.3369679e+03
 1.1761660e+01   4.3386991e+03
 1.1766340e+01   4.3460524e+03
 1.1771020e+01   4.3471794e+03
 1.1775700e+01   4.3423215e+03
 1.1780380e+01   4.3416656e+03
 1.1785060e+01   4.3434400e+03
 1.1789740e+01   4.3343677e+03
 1.1794420e+01   4.3528910e+03
 1.1799100e+01   4.3375245e+03
 1.1803780e+01   4.3414188e+03
 1.1808460e+01   4.3487749e+03
 1.1813140e+01   4.3463451e+03
 1.1817820e+01   4.3590665e+03
 1.1822500e+01   4.3698960e+03
 1.1827180e+01   4.3550266e+03
 1.1831860e+01   4.3701021e+03
 1.1836540e+01   4.3704011e+03
 1.1841220e+01   4.3867649e+03
 1.1845900e+01   4.4002232e+03
 1.1850580e+01   4.3927151e+03
 1.1855260e+01   4.4207877e+03
 1.1859940e+01   4.4303533e+03
 1.1864620e+01   4.4484064e+03
 1.1869300e+01   4.4920167e+03
 1.1873980e+01   4.5292284e+03
 1.1878660e+01   4.6035384e+03
 1.1883340e+01   4.6793206e+03
 1.1888020e+01   4.7769639e+03
 1.1892700e+01   4.9014207e+03
 1.1897380e+01   5.0085857e+03
 1.1902060e+01   5.0698423e+03
 1.1906740e+01   5.0818423e+03
 1.1911420e+01   5.0347681e+03
 1.1916100e+01   5.0035161e+03
 1.1920780e+01   4.8864579e+03
 1.1925460e+01   4.8116259e+03
 1.1930140e+01   4.7271639e+03
 1.1934820e+01   4.6833767e+03
 1.1939500e+01   4.6522520e+03
 1.1944180e+01   4.6326781e+03
 1.1948860e+01   4.6130307e+03
 1.1953540e+01   4.6119457e+03
 1.1958220e+01   4.6177391e+03
 1.1962900e+01   4.6096321e+03
 1.1967580e+01   4.6283015e+03
 1.1972260e+01   4.6196608e+03
 1.1976940e+01   4.6215377e+03
 1.1981620e+01   4.6165787e+03
 1.1986300e+01   4.6067405e+03
 1.1990980e+01   4.6134514e+03
 1.1995660e+01   4.6032553e+03
 1.2000340e+01   4.5989715e+03
 1.2005020e+01   4.5845548e+03
 1.2009700e+01   4.5748007e+03
 1.2014380e+01   4.5572728e+03
 1.2019060e+01   4.5563138e+03
 1.2023740e+01   4.5395934e+03
 1.2028420e+01   4.5344740e+03
 1.2033100e+01   4.5045989e+03
 1.2037780e+01   4.5040866e+03
 1.2042460e+01   4.4870258e+03
 1.2047140e+01   4.4598850e+03
 1.2051820e+01   4.4476654e+03
 1.2056500e+01   4.4378168e+03
 1.2061180e+01   4.4304882e+03
 1.2065860e+01   4.4193540e+03
 1.2070540e+01   4.4087571e+03
 1.2075220e+01   4.3901108e+03
 1.2079900e+01   4.3901786e+03
 1.2084580e+01   4.3713811e+03
 1.2089260e+01   4.3693035e+03
 1.2093940e+01   4.3507487e+03
 1.2098620e+01   4.3474691e+03
 1.2103300e+01   4.3355594e+03
 1.2107980e+01   4.3289457e+03
 1.2112660e+01   4.3252863e+03
 1.2117340e+01   4.3116142e+03
 1.2122020e+01   4.3044235e+03
 1.2126700e+01   4.2891260e+03
 1.2131380e+01   4.2663922e+03
 1.2136060e+01   4.2650766e+03
 1.2140740e+01   4.2562724e+03
 1.2145420e+01   4.2360580e+03
 1.2150100e+01   4.2382185e+03
 1.2154780e+01   4.2170647e+03
 1.2159460e+01   4.2081028e+03
 1.2164140e+01   4.1957091e+03
 1.2168820e+01   4.1934708e+03
 1.2173500e+01   4.1804549e+03
 1.2178180e+01   4.1739009e+03
 1.2182860e+01   4.1672390e+03
 1.2187540e+01   4.1560780e+03
 1.2192220e+01   4.1445841e+03
 1.2196900e+01   4.1485589e+03
 1.2201580e+01   4.1377904e+03
 1.2206260e+01   4.1311278e+03
 1.2210940e+01   4.1301704e+03
 1.2215620e+01   4.1268921e+03
 1.2220300e+01   4.1283465e+03
 1.2224980e+01   4.1191043e+03
 1.2229660e+01   4.1163431e+03
 1.2234340e+01   4.1205379e+03
 1.2239020e+01   4.1035798e+03
 1.2243700e+01   4.1017255e+03
 1.2248380e+01   4.1025027e+03
 1.2253060e+01   4.1037706e+03
 1.2257740e+01   4.0885797e+03
 1.2262420e+01   4.1041391e+03
 1.2267100e+01   4.0947536e+03
 1.2271780e+01   4.0907673e+03
 1.2276460e+01   4.0980335e+03
 1.2281140e+01   4.0844291e+03
 1.2285820e+01   4.0885660e+03
 1.2290500e+01   4.0805142e+03
 1.2295180e+01   4.0841285e+03
 1.2299860e+01   4.0823584e+03
 1.2304540e+01   4.0825390e+03
 1.2309220e+01   4.0813713e+03
 1.2313900e+01   4.0852693e+03
 1.2318580e+01   4.0787776e+03
 1.2323260e+01   4.0892436e+03
 1.2327940e+01   4.0793674e+03
 1.2332620e+01   4.0781423e+03
 1.2337300e+01   4.0819460e+03
 1.2341980e+01   4.0912534e+03
 1.2346660e+01   4.0870772e+03
 1.2351340e+01   4.0891240e+03
 1.2356020e+01   4.1011489e+03
 1.2360700e+01   4.0984124e+03
 1.2365380e+01   4.1063743e+03
 1.2370060e+01   4.1156750e+03
 1.2374740e+01   4.1148418e+03
 1.2379420e+01   4.1159779e+03
 1.2384100e+01   4.1309567e+03
 1.2388780e+01   4.1201639e+03
 1.2393460e+01   4.1363520e+03
 1.2398140e+01   4.1335529e+03
 1.2402820e+01   4.1310397e+03
 1.2407500e+01   4.1435484e+03
 1.2412180e+01   4.1336629e+03
 1.2416860e+01   4.1430870e+03
 1.2421540e+01   4.1414971e+03
 1.2426220e+01   4.1402948e+03
 1.2430900e+01   4.1433847e+03
 1.2435580e+01   4.1325540e+03
 1.2440260e+01   4.1449746e+03
 1.2444940e+01   4.1308412e+03
 1.2449620e+01   4.1301267e+03
 1.2454300e+01   4.1403791e+03
 1.2458980e+01   4.1303970e+03
 1.2463660e+01   4.1257601e+03
 1.2468340e+01   4.1384094e+03
 1.2473020e+01   4.1250236e+03
 1.2477700e+01   4.1254476e+03
 1.2482380e+01   4.1258416e+03
 1.2487060e+01   4.1160288e+03
 1.2491740e+01   4.1118737e+03
 1.2496420e+01   4.1093930e+03
 1.2501100e+01   4.0959517e+03
 1.2505780e+01   4.0965752e+03
 1.2510460e+01   4.0964626e+03
 1.2515140e+01   4.0965054e+03
 1.2519820e+01   4.0885900e+03
 1.2524500e+01   4.0836445e+03
 1.2529180e+01   4.0780629e+03
 1.2533860e+01   4.0814203e+03
 1.2538540e+01   4.0822612e+03
 1.2543220e+01   4.0622814e+03
 1.2547900e+01   4.0640913e+03
 1.2552580e+01   4.0609064e+03
 1.2557260e+01   4.0616840e+03
 1.2561940e+01   4.0711020e+03
 1.2566620e+01   4.0577866e+03
 1.2571300e+01   4.0661001e+03
 1.2575980e+01   4.0622553e+03
 1.2580660e+01   4.0607573e+03
 1.2585340e+01   4.0640972e+03
 1.2590020e+01   4.0754888e+03
 1.2594700e+01   4.0713639e+03
 1.2599380e+01   4.0784510e+03
 1.2604060e+01   4.0815220e+03
 1.2608740e+01   4.0850768e+03
 1.2613420e+01   4.0910331e+03
 1.2618100e+01   4.0938366e+03
 1.2622780e+01   4.0984730e+03
 1.2627460e+01   4.1004641e+03
 1.2632140e+01   4.1210013e+03
 1.2636820e+01   4.1126172e+03
 1.2641500e+01   4.1264012e+03
 1.2646180e+01   4.1397866e+03
 1.2650860e+01   4.1390492e+03
 1.2655540e+01   4.1436728e+03
 1.2660220e+01   4.1644864e+03
 1.2664900e+01   4.1582745e+03
 1.2669580e+01   4.1776496e+03
 1.2674260e+01   4.1845498e+03
 1.2678940e+01   4.1941102e+03
 1.2683620e+01   4.1945430e+03
 1.2688300e+01   4.2154101e+03
 1.2692980e+01   4.2233120e+03
 1.2697660e+01   4.2278973e+03
