MA2b-00007.tif Azm= 0.00
2-Theta Angle (Degrees)
Intensity
       2500
 1.0023400e+00   7.9821882e+03
 1.0070200e+00   8.0179035e+03
 1.0117000e+00   7.9188032e+03
 1.0163800e+00   7.9445485e+03
 1.0210600e+00   7.8675827e+03
 1.0257400e+00   7.8825877e+03
 1.0304199e+00   7.8174526e+03
 1.0351000e+00   7.8063033e+03
 1.0397800e+00   7.7926928e+03
 1.0444601e+00   7.7468444e+03
 1.0491400e+00   7.7209655e+03
 1.0538200e+00   7.7202603e+03
 1.0585001e+00   7.6693057e+03
 1.0631800e+00   7.6823684e+03
 1.0678600e+00   7.6849391e+03
 1.0725400e+00   7.6222632e+03
 1.0772200e+00   7.6120950e+03
 1.0819000e+00   7.5966293e+03
 1.0865800e+00   7.5964770e+03
 1.0912600e+00   7.5543199e+03
 1.0959400e+00   7.5417793e+03
 1.1006200e+00   7.4956769e+03
 1.1052999e+00   7.4857243e+03
 1.1099800e+00   7.4651728e+03
 1.1146600e+00   7.4230453e+03
 1.1193399e+00   7.4348334e+03
 1.1240200e+00   7.4186422e+03
 1.1287000e+00   7.4028093e+03
 1.1333801e+00   7.3827830e+03
 1.1380600e+00   7.3627395e+03
 1.1427400e+00   7.3501689e+03
 1.1474200e+00   7.3099787e+03
 1.1521000e+00   7.3580704e+03
 1.1567800e+00   7.3296084e+03
 1.1614600e+00   7.2976755e+03
 1.1661400e+00   7.3062472e+03
 1.1708200e+00   7.2943731e+03
 1.1755000e+00   7.3169465e+03
 1.1801800e+00   7.2314729e+03
 1.1848600e+00   7.2955911e+03
 1.1895400e+00   7.2552584e+03
 1.1942199e+00   7.3102668e+03
 1.1989000e+00   7.2536472e+03
 1.2035800e+00   7.2425120e+03
 1.2082601e+00   7.2513241e+03
 1.2129400e+00   7.2126832e+03
 1.2176200e+00   7.1848591e+03
 1.2223001e+00   7.2213043e+03
 1.2269800e+00   7.2149644e+03
 1.2316600e+00   7.1890117e+03
 1.2363400e+00   7.1768393e+03
 1.2410200e+00   7.1967458e+03
 1.2457000e+00   7.1814865e+03
 1.2503800e+00   7.1678777e+03
 1.2550600e+00   7.1855471e+03
 1.2597400e+00   7.1813375e+03
 1.2644200e+00   7.1772066e+03
 1.2691000e+00   7.1776907e+03
 1.2737800e+00   7.1542663e+03
 1.2784600e+00   7.1904768e+03
 1.2831399e+00   7.1692646e+03
 1.2878200e+00   7.1871975e+03
 1.2925000e+00   7.1509587e+03
 1.2971801e+00   7.1685345e+03
 1.3018600e+00   7.1689955e+03
 1.3065400e+00   7.1702339e+03
 1.3112200e+00   7.1583965e+03
 1.3159000e+00   7.1976866e+03
 1.3205800e+00   7.2280015e+03
 1.3252600e+00   7.2044603e+03
 1.3299400e+00   7.2125060e+03
 1.3346200e+00   7.2260116e+03
 1.3393000e+00   7.2295465e+03
 1.3439800e+00   7.2342399e+03
 1.3486600e+00   7.2138916e+03
 1.3533400e+00   7.1870715e+03
 1.3580199e+00   7.2251657e+03
 1.3627000e+00   7.2433164e+03
 1.3673800e+00   7.2739756e+03
 1.3720599e+00   7.2772374e+03
 1.3767400e+00   7.2958386e+03
 1.3814200e+00   7.2863483e+03
 1.3861001e+00   7.3187242e+03
 1.3907800e+00   7.3147195e+03
 1.3954600e+00   7.3372210e+03
 1.4001400e+00   7.3234910e+03
 1.4048200e+00   7.3439288e+03
 1.4095000e+00   7.3596590e+03
 1.4141800e+00   7.3781138e+03
 1.4188600e+00   7.4008606e+03
 1.4235400e+00   7.4135072e+03
 1.4282200e+00   7.4200759e+03
 1.4329000e+00   7.4658122e+03
 1.4375800e+00   7.4638480e+03
 1.4422600e+00   7.4865601e+03
 1.4469399e+00   7.5189949e+03
 1.4516200e+00   7.5552810e+03
 1.4563000e+00   7.5361004e+03
 1.4609801e+00   7.5941014e+03
 1.4656600e+00   7.6458413e+03
 1.4703400e+00   7.6350592e+03
 1.4750201e+00   7.6950703e+03
 1.4797000e+00   7.6991158e+03
 1.4843800e+00   7.7059199e+03
 1.4890600e+00   7.7336158e+03
 1.4937400e+00   7.7428487e+03
 1.4984200e+00   7.7636605e+03
 1.5031000e+00   7.7966480e+03
 1.5077800e+00   7.7994283e+03
 1.5124600e+00   7.8310322e+03
 1.5171400e+00   7.8086916e+03
 1.5218199e+00   7.8547253e+03
 1.5265000e+00   7.8297969e+03
 1.5311800e+00   7.8141599e+03
 1.5358599e+00   7.8273528e+03
 1.5405400e+00   7.8214202e+03
 1.5452200e+00   7.8270460e+03
 1.5499001e+00   7.8346846e+03
 1.5545800e+00   7.8055318e+03
 1.5592600e+00   7.7995088e+03
 1.5639400e+00   7.7745720e+03
 1.5686200e+00   7.7649344e+03
 1.5733000e+00   7.7768368e+03
 1.5779800e+00   7.7684462e+03
 1.5826600e+00   7.7762516e+03
 1.5873400e+00   7.7621579e+03
 1.5920200e+00   7.7559434e+03
 1.5967000e+00   7.7491710e+03
 1.6013800e+00   7.7483358e+03
 1.6060600e+00   7.7353667e+03
 1.6107399e+00   7.7540404e+03
 1.6154200e+00   7.7440633e+03
 1.6201000e+00   7.7645524e+03
 1.6247801e+00   7.7654679e+03
 1.6294600e+00   7.7443868e+03
 1.6341400e+00   7.7454491e+03
 1.6388201e+00   7.7630764e+03
 1.6435000e+00   7.7488900e+03
 1.6481800e+00   7.7455272e+03
 1.6528600e+00   7.7606979e+03
 1.6575400e+00   7.7196668e+03
 1.6622200e+00   7.7635912e+03
 1.6669000e+00   7.7413829e+03
 1.6715800e+00   7.7755905e+03
 1.6762600e+00   7.7475789e+03
 1.6809400e+00   7.7799554e+03
 1.6856200e+00   7.7680455e+03
 1.6903000e+00   7.7554817e+03
 1.6949800e+00   7.7787211e+03
 1.6996599e+00   7.7928082e+03
 1.7043400e+00   7.7868476e+03
 1.7090200e+00   7.7839336e+03
 1.7137001e+00   7.7671441e+03
 1.7183800e+00   7.8021425e+03
 1.7230600e+00   7.8148609e+03
 1.7277400e+00   7.7836495e+03
 1.7324200e+00   7.8239405e+03
 1.7371000e+00   7.7891775e+03
 1.7417800e+00   7.8177819e+03
 1.7464600e+00   7.7910436e+03
 1.7511400e+00   7.8215036e+03
 1.7558200e+00   7.8368417e+03
 1.7605000e+00   7.8396653e+03
 1.7651800e+00   7.8354154e+03
 1.7698600e+00   7.8710735e+03
 1.7745399e+00   7.8490925e+03
 1.7792200e+00   7.9148372e+03
 1.7839000e+00   7.8750495e+03
 1.7885799e+00   7.9063126e+03
 1.7932600e+00   7.8914900e+03
 1.7979400e+00   7.9435683e+03
 1.8026201e+00   7.9588356e+03
 1.8073000e+00   7.9367292e+03
 1.8119800e+00   7.9687006e+03
 1.8166600e+00   8.0019148e+03
 1.8213400e+00   8.0047986e+03
 1.8260200e+00   8.0076941e+03
 1.8307000e+00   8.0442277e+03
 1.8353800e+00   8.0559744e+03
 1.8400600e+00   8.0730875e+03
 1.8447400e+00   8.0931887e+03
 1.8494200e+00   8.0904813e+03
 1.8541000e+00   8.1229958e+03
 1.8587800e+00   8.1238678e+03
 1.8634599e+00   8.1664817e+03
 1.8681400e+00   8.1827783e+03
 1.8728200e+00   8.1978059e+03
 1.8775001e+00   8.2377780e+03
 1.8821800e+00   8.2514678e+03
 1.8868600e+00   8.2903904e+03
 1.8915401e+00   8.2888697e+03
 1.8962200e+00   8.3248145e+03
 1.9009000e+00   8.3214122e+03
 1.9055800e+00   8.3629529e+03
 1.9102600e+00   8.3780019e+03
 1.9149400e+00   8.4081197e+03
 1.9196200e+00   8.4265172e+03
 1.9243000e+00   8.4862240e+03
 1.9289800e+00   8.4861676e+03
 1.9336600e+00   8.5097164e+03
 1.9383399e+00   8.5358039e+03
 1.9430200e+00   8.5570946e+03
 1.9477000e+00   8.6087264e+03
 1.9523799e+00   8.6222745e+03
 1.9570600e+00   8.6499374e+03
 1.9617400e+00   8.7216442e+03
 1.9664201e+00   8.7090711e+03
 1.9711000e+00   8.9291405e+03
 1.9757800e+00   8.7831730e+03
 1.9804600e+00   8.8460190e+03
 1.9851400e+00   8.8152127e+03
 1.9898200e+00   8.8313728e+03
 1.9945000e+00   8.8668590e+03
 1.9991800e+00   8.8637604e+03
 2.0038600e+00   8.8723975e+03
 2.0085399e+00   8.9329493e+03
 2.0132201e+00   8.9790615e+03
 2.0179000e+00   8.9764223e+03
 2.0225799e+00   8.9974263e+03
 2.0272601e+00   9.0398556e+03
 2.0319400e+00   9.0890885e+03
 2.0366199e+00   9.1244032e+03
 2.0413001e+00   9.1597941e+03
 2.0459800e+00   9.2002316e+03
 2.0506599e+00   9.2335913e+03
 2.0553401e+00   9.2876601e+03
 2.0600200e+00   9.3234630e+03
 2.0646999e+00   9.3787444e+03
 2.0693800e+00   9.4648692e+03
 2.0740600e+00   9.5374658e+03
 2.0787399e+00   9.6364509e+03
 2.0834200e+00   9.7985674e+03
 2.0881000e+00   9.9600003e+03
 2.0927801e+00   1.0248320e+04
 2.0974600e+00   1.0609313e+04
 2.1021399e+00   1.1120063e+04
 2.1068201e+00   1.1785836e+04
 2.1115000e+00   1.2919579e+04
 2.1161799e+00   1.4440721e+04
 2.1208601e+00   1.6615320e+04
 2.1255400e+00   1.9372529e+04
 2.1302199e+00   2.2826791e+04
 2.1349001e+00   2.6321990e+04
 2.1395800e+00   2.9551500e+04
 2.1442599e+00   3.1921350e+04
 2.1489401e+00   3.2992945e+04
 2.1536200e+00   3.2582925e+04
 2.1582999e+00   3.1040957e+04
 2.1629801e+00   2.8610943e+04
 2.1676600e+00   2.5894173e+04
 2.1723399e+00   2.3209331e+04
 2.1770201e+00   2.0841847e+04
 2.1817000e+00   1.8808297e+04
 2.1863799e+00   1.7213496e+04
 2.1910601e+00   1.5854014e+04
 2.1957400e+00   1.4831641e+04
 2.2004199e+00   1.3909340e+04
 2.2051001e+00   1.3267460e+04
 2.2097800e+00   1.2716701e+04
 2.2144599e+00   1.2344336e+04
 2.2191401e+00   1.2026839e+04
 2.2238200e+00   1.1824501e+04
 2.2284999e+00   1.1644404e+04
 2.2331800e+00   1.1539055e+04
 2.2378600e+00   1.1409883e+04
 2.2425399e+00   1.1289250e+04
 2.2472200e+00   1.1172313e+04
 2.2519000e+00   1.1058392e+04
 2.2565801e+00   1.0932631e+04
 2.2612600e+00   1.0820179e+04
 2.2659400e+00   1.0727981e+04
 2.2706201e+00   1.0629388e+04
 2.2753000e+00   1.0607635e+04
 2.2799799e+00   1.0532019e+04
 2.2846601e+00   1.0529560e+04
 2.2893400e+00   1.0526930e+04
 2.2940199e+00   1.0512789e+04
 2.2987001e+00   1.0501711e+04
 2.3033800e+00   1.0515867e+04
 2.3080599e+00   1.0526088e+04
 2.3127401e+00   1.0542530e+04
 2.3174200e+00   1.0580649e+04
 2.3220999e+00   1.0596095e+04
 2.3267801e+00   1.0617434e+04
 2.3314600e+00   1.0651079e+04
 2.3361399e+00   1.0674090e+04
 2.3408201e+00   1.0688215e+04
 2.3455000e+00   1.0725267e+04
 2.3501799e+00   1.0744846e+04
 2.3548601e+00   1.0784058e+04
 2.3595400e+00   1.0796158e+04
 2.3642199e+00   1.0830807e+04
 2.3689001e+00   1.0868916e+04
 2.3735800e+00   1.0891677e+04
 2.3782599e+00   1.0923024e+04
 2.3829401e+00   1.0960452e+04
 2.3876200e+00   1.0981884e+04
 2.3922999e+00   1.1010806e+04
 2.3969800e+00   1.1064784e+04
 2.4016600e+00   1.1092222e+04
 2.4063399e+00   1.1111637e+04
 2.4110200e+00   1.1168194e+04
 2.4157000e+00   1.1203220e+04
 2.4203801e+00   1.1233476e+04
 2.4250600e+00   1.1272353e+04
 2.4297400e+00   1.1320520e+04
 2.4344201e+00   1.1359028e+04
 2.4391000e+00   1.1385504e+04
 2.4437799e+00   1.1429281e+04
 2.4484601e+00   1.1447081e+04
 2.4531400e+00   1.1487879e+04
 2.4578199e+00   1.1524844e+04
 2.4625001e+00   1.1574131e+04
 2.4671800e+00   1.1593872e+04
 2.4718599e+00   1.1650426e+04
 2.4765401e+00   1.1680989e+04
 2.4812200e+00   1.1703492e+04
 2.4858999e+00   1.1736836e+04
 2.4905801e+00   1.1776826e+04
 2.4952600e+00   1.1807716e+04
 2.4999399e+00   1.1864129e+04
 2.5046201e+00   1.1886065e+04
 2.5093000e+00   1.1918513e+04
 2.5139799e+00   1.1959369e+04
 2.5186601e+00   1.1999960e+04
 2.5233400e+00   1.2047175e+04
 2.5280199e+00   1.2079286e+04
 2.5327001e+00   1.2093999e+04
 2.5373800e+00   1.2145522e+04
 2.5420599e+00   1.2178390e+04
 2.5467401e+00   1.2217877e+04
 2.5514200e+00   1.2250708e+04
 2.5560999e+00   1.2261934e+04
 2.5607800e+00   1.2313460e+04
 2.5654600e+00   1.2333357e+04
 2.5701399e+00   1.2352941e+04
 2.5748200e+00   1.2395339e+04
 2.5795000e+00   1.2452334e+04
 2.5841801e+00   1.2465610e+04
 2.5888600e+00   1.2503254e+04
 2.5935400e+00   1.2520708e+04
 2.5982201e+00   1.2566383e+04
 2.6029000e+00   1.2567434e+04
 2.6075799e+00   1.2587144e+04
 2.6122601e+00   1.2607055e+04
 2.6169400e+00   1.2629063e+04
 2.6216199e+00   1.2650575e+04
 2.6263001e+00   1.2687333e+04
 2.6309800e+00   1.2684516e+04
 2.6356599e+00   1.2710663e+04
 2.6403401e+00   1.2731716e+04
 2.6450200e+00   1.2764232e+04
 2.6496999e+00   1.2785613e+04
 2.6543801e+00   1.2800577e+04
 2.6590600e+00   1.2845666e+04
 2.6637399e+00   1.2838791e+04
 2.6684201e+00   1.2861037e+04
 2.6731000e+00   1.2908576e+04
 2.6777799e+00   1.2902164e+04
 2.6824601e+00   1.2903894e+04
 2.6871400e+00   1.2973364e+04
 2.6918199e+00   1.2935100e+04
 2.6965001e+00   1.2949816e+04
 2.7011800e+00   1.2976729e+04
 2.7058599e+00   1.2966940e+04
 2.7105401e+00   1.2972851e+04
 2.7152200e+00   1.2982100e+04
 2.7198999e+00   1.2970567e+04
 2.7245800e+00   1.2948479e+04
 2.7292600e+00   1.2990594e+04
 2.7339399e+00   1.2987029e+04
 2.7386200e+00   1.2967800e+04
 2.7433000e+00   1.2966625e+04
 2.7479801e+00   1.2933455e+04
 2.7526600e+00   1.2958237e+04
 2.7573400e+00   1.2945612e+04
 2.7620201e+00   1.2937274e+04
 2.7667000e+00   1.2933871e+04
 2.7713799e+00   1.2904754e+04
 2.7760601e+00   1.2938531e+04
 2.7807400e+00   1.2898044e+04
 2.7854199e+00   1.2911958e+04
 2.7901001e+00   1.2894751e+04
 2.7947800e+00   1.2879720e+04
 2.7994599e+00   1.2854871e+04
 2.8041401e+00   1.2872820e+04
 2.8088200e+00   1.2853509e+04
 2.8134999e+00   1.2830436e+04
 2.8181801e+00   1.2819788e+04
 2.8228600e+00   1.2812774e+04
 2.8275399e+00   1.2796101e+04
 2.8322201e+00   1.2777362e+04
 2.8369000e+00   1.2748242e+04
 2.8415799e+00   1.2756376e+04
 2.8462601e+00   1.2730811e+04
 2.8509400e+00   1.2706441e+04
 2.8556199e+00   1.2702202e+04
 2.8603001e+00   1.2676836e+04
 2.8649800e+00   1.2653698e+04
 2.8696599e+00   1.2639530e+04
 2.8743401e+00   1.2633470e+04
 2.8790200e+00   1.2620121e+04
 2.8836999e+00   1.2582445e+04
 2.8883801e+00   1.2562059e+04
 2.8930600e+00   1.2550060e+04
 2.8977399e+00   1.2530971e+04
 2.9024200e+00   1.2513110e+04
 2.9071000e+00   1.2505340e+04
 2.9117801e+00   1.2480002e+04
 2.9164600e+00   1.2444397e+04
 2.9211400e+00   1.2462647e+04
 2.9258201e+00   1.2418644e+04
 2.9305000e+00   1.2388482e+04
 2.9351799e+00   1.2399112e+04
 2.9398601e+00   1.2352394e+04
 2.9445400e+00   1.2377931e+04
 2.9492199e+00   1.2342496e+04
 2.9539001e+00   1.2328293e+04
 2.9585800e+00   1.2309595e+04
 2.9632599e+00   1.2260487e+04
 2.9679401e+00   1.2254222e+04
 2.9726200e+00   1.2224983e+04
 2.9772999e+00   1.2194793e+04
 2.9819801e+00   1.2199899e+04
 2.9866600e+00   1.2129599e+04
 2.9913399e+00   1.2109941e+04
 2.9960201e+00   1.2116333e+04
 3.0007000e+00   1.2060566e+04
 3.0053799e+00   1.2047282e+04
 3.0100601e+00   1.2012742e+04
 3.0147400e+00   1.1998330e+04
 3.0194199e+00   1.1978623e+04
 3.0241001e+00   1.1939047e+04
 3.0287800e+00   1.1939575e+04
 3.0334599e+00   1.1906293e+04
 3.0381401e+00   1.1862749e+04
 3.0428200e+00   1.1843323e+04
 3.0474999e+00   1.1817375e+04
 3.0521801e+00   1.1755034e+04
 3.0568600e+00   1.1745119e+04
 3.0615399e+00   1.1698002e+04
 3.0662200e+00   1.1687266e+04
 3.0709000e+00   1.1671341e+04
 3.0755799e+00   1.1647814e+04
 3.0802600e+00   1.1630711e+04
 3.0849400e+00   1.1605412e+04
 3.0896201e+00   1.1560658e+04
 3.0943000e+00   1.1548113e+04
 3.0989799e+00   1.1515216e+04
 3.1036601e+00   1.1484579e+04
 3.1083400e+00   1.1498234e+04
 3.1130199e+00   1.1455365e+04
 3.1177001e+00   1.1449740e+04
 3.1223800e+00   1.1431908e+04
 3.1270599e+00   1.1365253e+04
 3.1317401e+00   1.1377433e+04
 3.1364200e+00   1.1340873e+04
 3.1410999e+00   1.1330770e+04
 3.1457801e+00   1.1309184e+04
 3.1504600e+00   1.1298029e+04
 3.1551399e+00   1.1265143e+04
 3.1598201e+00   1.1260277e+04
 3.1645000e+00   1.1235429e+04
 3.1691799e+00   1.1244957e+04
 3.1738601e+00   1.1212505e+04
 3.1785400e+00   1.1196013e+04
 3.1832199e+00   1.1174497e+04
 3.1879001e+00   1.1187016e+04
 3.1925800e+00   1.1162491e+04
 3.1972599e+00   1.1155843e+04
 3.2019401e+00   1.1119984e+04
 3.2066200e+00   1.1116199e+04
 3.2112999e+00   1.1136832e+04
 3.2159801e+00   1.1087361e+04
 3.2206600e+00   1.1054161e+04
 3.2253399e+00   1.1057839e+04
 3.2300200e+00   1.1018492e+04
 3.2347000e+00   1.1011650e+04
 3.2393799e+00   1.1019688e+04
 3.2440600e+00   1.0989296e+04
 3.2487400e+00   1.1004316e+04
 3.2534201e+00   1.0977937e+04
 3.2581000e+00   1.0979958e+04
 3.2627800e+00   1.0968227e+04
 3.2674601e+00   1.0943370e+04
 3.2721400e+00   1.0942298e+04
 3.2768199e+00   1.0923540e+04
 3.2815001e+00   1.0899923e+04
 3.2861800e+00   1.0908872e+04
 3.2908599e+00   1.0880094e+04
 3.2955401e+00   1.0904003e+04
 3.3002200e+00   1.0878704e+04
 3.3048999e+00   1.0880713e+04
 3.3095801e+00   1.0876272e+04
 3.3142600e+00   1.0909845e+04
 3.3189399e+00   1.0846737e+04
 3.3236201e+00   1.0909246e+04
 3.3283000e+00   1.0868764e+04
 3.3329799e+00   1.0864215e+04
 3.3376601e+00   1.0867381e+04
 3.3423400e+00   1.0875104e+04
 3.3470199e+00   1.0852743e+04
 3.3517001e+00   1.0883074e+04
 3.3563800e+00   1.0871036e+04
 3.3610599e+00   1.0859453e+04
 3.3657401e+00   1.0880468e+04
 3.3704200e+00   1.0868029e+04
 3.3750999e+00   1.0860075e+04
 3.3797801e+00   1.0852758e+04
 3.3844600e+00   1.0840097e+04
 3.3891399e+00   1.0852138e+04
 3.3938200e+00   1.0844246e+04
 3.3985000e+00   1.0869466e+04
 3.4031799e+00   1.0865445e+04
 3.4078600e+00   1.0838773e+04
 3.4125400e+00   1.0903521e+04
 3.4172201e+00   1.0888355e+04
 3.4219000e+00   1.0885592e+04
 3.4265800e+00   1.0905329e+04
 3.4312601e+00   1.0912713e+04
 3.4359400e+00   1.0925660e+04
 3.4406199e+00   1.0925380e+04
 3.4453001e+00   1.0902784e+04
 3.4499800e+00   1.0943149e+04
 3.4546599e+00   1.0924741e+04
 3.4593401e+00   1.0939559e+04
 3.4640200e+00   1.0928963e+04
 3.4686999e+00   1.0935726e+04
 3.4733801e+00   1.0902573e+04
 3.4780600e+00   1.0976713e+04
 3.4827399e+00   1.0911547e+04
 3.4874201e+00   1.0951228e+04
 3.4921000e+00   1.0949934e+04
 3.4967799e+00   1.0927326e+04
 3.5014601e+00   1.0938042e+04
 3.5061400e+00   1.0964044e+04
 3.5108199e+00   1.0921193e+04
 3.5155001e+00   1.0979995e+04
 3.5201800e+00   1.0958069e+04
 3.5248599e+00   1.0940913e+04
 3.5295401e+00   1.0992409e+04
 3.5342200e+00   1.0944660e+04
 3.5388999e+00   1.1015456e+04
 3.5435801e+00   1.0985668e+04
 3.5482600e+00   1.0961954e+04
 3.5529399e+00   1.0976222e+04
 3.5576200e+00   1.1003964e+04
 3.5623000e+00   1.0965464e+04
 3.5669799e+00   1.1048505e+04
 3.5716600e+00   1.0967904e+04
 3.5763400e+00   1.1047929e+04
 3.5810201e+00   1.1015302e+04
 3.5857000e+00   1.1048766e+04
 3.5903800e+00   1.1030521e+04
 3.5950601e+00   1.1127611e+04
 3.5997400e+00   1.1007757e+04
 3.6044199e+00   1.1128142e+04
 3.6091001e+00   1.1064127e+04
 3.6137800e+00   1.1053204e+04
 3.6184599e+00   1.1122428e+04
 3.6231401e+00   1.1114297e+04
 3.6278200e+00   1.1084698e+04
 3.6324999e+00   1.1162069e+04
 3.6371801e+00   1.1083684e+04
 3.6418600e+00   1.1158812e+04
 3.6465399e+00   1.1172612e+04
 3.6512201e+00   1.1102706e+04
 3.6559000e+00   1.1255180e+04
 3.6605799e+00   1.1160145e+04
 3.6652601e+00   1.1220740e+04
 3.6699400e+00   1.1232349e+04
 3.6746199e+00   1.1246273e+04
 3.6793001e+00   1.1221978e+04
 3.6839800e+00   1.1464487e+04
 3.6886599e+00   1.1185045e+04
 3.6933401e+00   1.1471222e+04
 3.6980200e+00   1.1262330e+04
 3.7026999e+00   1.1484241e+04
 3.7073801e+00   1.1384267e+04
 3.7120600e+00   1.1545992e+04
 3.7167399e+00   1.1365104e+04
 3.7214200e+00   1.1735249e+04
 3.7261000e+00   1.1451610e+04
 3.7307799e+00   1.1606439e+04
 3.7354600e+00   1.1618640e+04
 3.7401400e+00   1.1652936e+04
 3.7448201e+00   1.1825541e+04
 3.7495000e+00   1.1749312e+04
 3.7541800e+00   1.1816966e+04
 3.7588601e+00   1.1772465e+04
 3.7635400e+00   1.1882681e+04
 3.7682199e+00   1.1928777e+04
 3.7729001e+00   1.2162254e+04
 3.7775800e+00   1.1908545e+04
 3.7822599e+00   1.2299888e+04
 3.7869401e+00   1.2015993e+04
 3.7916200e+00   1.2333021e+04
 3.7962999e+00   1.2318016e+04
 3.8009801e+00   1.2632503e+04
 3.8056600e+00   1.2221306e+04
 3.8103399e+00   1.2931401e+04
 3.8150201e+00   1.2261272e+04
 3.8197000e+00   1.3196004e+04
 3.8243799e+00   1.2778711e+04
 3.8290601e+00   1.3332209e+04
 3.8337400e+00   1.2852532e+04
 3.8384199e+00   1.3736104e+04
 3.8431001e+00   1.3111279e+04
 3.8477800e+00   1.3907393e+04
 3.8524599e+00   1.3741797e+04
 3.8571401e+00   1.4259567e+04
 3.8618200e+00   1.4232530e+04
 3.8664999e+00   1.4271250e+04
 3.8711801e+00   1.4591163e+04
 3.8758600e+00   1.5076924e+04
 3.8805399e+00   1.5387561e+04
 3.8852201e+00   1.6218846e+04
 3.8899000e+00   1.6136745e+04
 3.8945799e+00   1.6967303e+04
 3.8992600e+00   1.7467264e+04
 3.9039400e+00   1.9138935e+04
 3.9086201e+00   1.9268253e+04
 3.9133000e+00   2.5510570e+04
 3.9179800e+00   2.4108246e+04
 3.9226601e+00   3.5073956e+04
 3.9273400e+00   3.5882545e+04
 3.9320199e+00   5.8805582e+04
 3.9367001e+00   5.6152578e+04
 3.9413800e+00   8.9120443e+04
 3.9460599e+00   7.7214507e+04
 3.9507401e+00   9.4794733e+04
 3.9554200e+00   8.3380264e+04
 3.9600999e+00   1.0346933e+05
 3.9647801e+00   9.7620152e+04
 3.9694600e+00   1.0561160e+05
 3.9741399e+00   1.2197128e+05
 3.9788201e+00   9.9319008e+04
 3.9835000e+00   1.0417254e+05
 3.9881799e+00   5.9303997e+04
 3.9928601e+00   8.8815269e+04
 3.9975400e+00   3.7433461e+04
 4.0022202e+00   5.8324754e+04
 4.0068998e+00   3.7193813e+04
 4.0115800e+00   3.8051752e+04
 4.0162601e+00   2.1548419e+04
 4.0209398e+00   2.4224554e+04
 4.0256200e+00   1.8269305e+04
 4.0303001e+00   1.9359440e+04
 4.0349798e+00   1.5937853e+04
 4.0396600e+00   1.6689041e+04
 4.0443401e+00   1.5522743e+04
 4.0490198e+00   1.4541253e+04
 4.0537000e+00   1.4855119e+04
 4.0583801e+00   1.3602459e+04
 4.0630598e+00   1.4222322e+04
 4.0677400e+00   1.3144059e+04
 4.0724201e+00   1.3378987e+04
 4.0770998e+00   1.2658844e+04
 4.0817800e+00   1.2940660e+04
 4.0864601e+00   1.2609337e+04
 4.0911398e+00   1.2667289e+04
 4.0958200e+00   1.2117775e+04
 4.1005001e+00   1.2094815e+04
 4.1051798e+00   1.1865312e+04
 4.1098599e+00   1.1509892e+04
 4.1145401e+00   1.1782324e+04
 4.1192198e+00   1.1452641e+04
 4.1238999e+00   1.1337220e+04
 4.1285801e+00   1.1136996e+04
 4.1332598e+00   1.0997213e+04
 4.1379399e+00   1.0823778e+04
 4.1426201e+00   1.1052049e+04
 4.1472998e+00   1.0438433e+04
 4.1519799e+00   1.0731272e+04
 4.1566601e+00   1.0367544e+04
 4.1613402e+00   1.0471924e+04
 4.1660199e+00   1.0137863e+04
 4.1707001e+00   1.0330965e+04
 4.1753802e+00   9.9257805e+03
 4.1800599e+00   1.0263766e+04
 4.1847401e+00   9.7661068e+03
 4.1894202e+00   1.0058507e+04
 4.1940999e+00   9.6889562e+03
 4.1987801e+00   9.8556890e+03
 4.2034602e+00   9.7180432e+03
 4.2081399e+00   9.6930328e+03
 4.2128201e+00   9.6159150e+03
 4.2175002e+00   9.6890314e+03
 4.2221799e+00   9.4666020e+03
 4.2268600e+00   9.4565689e+03
 4.2315402e+00   9.5537114e+03
 4.2362199e+00   9.2884443e+03
 4.2409000e+00   9.4462773e+03
 4.2455802e+00   9.3919921e+03
 4.2502599e+00   9.3672963e+03
 4.2549400e+00   9.4175951e+03
 4.2596202e+00   9.7394922e+03
 4.2642999e+00   9.6981583e+03
 4.2689800e+00   1.0053039e+04
 4.2736602e+00   1.0148068e+04
 4.2783399e+00   1.0485231e+04
 4.2830200e+00   1.0511033e+04
 4.2877002e+00   1.0832770e+04
 4.2923799e+00   1.0795975e+04
 4.2970600e+00   1.0971578e+04
 4.3017402e+00   1.0683997e+04
 4.3064198e+00   1.0642796e+04
 4.3111000e+00   1.0261188e+04
 4.3157802e+00   1.0198704e+04
 4.3204598e+00   9.8999016e+03
 4.3251400e+00   9.6204747e+03
 4.3298202e+00   9.4265337e+03
 4.3344998e+00   9.2172490e+03
 4.3391800e+00   9.0149743e+03
 4.3438601e+00   8.9860698e+03
 4.3485398e+00   8.8433640e+03
 4.3532200e+00   8.7404702e+03
 4.3579001e+00   8.6644734e+03
 4.3625798e+00   8.5069376e+03
 4.3672600e+00   8.4452273e+03
 4.3719401e+00   8.3510349e+03
 4.3766198e+00   8.3048309e+03
 4.3813000e+00   8.2491218e+03
 4.3859801e+00   8.1602954e+03
 4.3906598e+00   8.0754367e+03
 4.3953400e+00   8.0808227e+03
 4.4000201e+00   7.9487025e+03
 4.4046998e+00   7.9992638e+03
 4.4093800e+00   7.8720566e+03
 4.4140601e+00   7.8455760e+03
 4.4187398e+00   7.8395690e+03
 4.4234200e+00   7.7850642e+03
 4.4281001e+00   7.6992558e+03
 4.4327798e+00   7.7767291e+03
 4.4374599e+00   7.6735683e+03
 4.4421401e+00   7.6607195e+03
 4.4468198e+00   7.6388426e+03
 4.4514999e+00   7.5839004e+03
 4.4561801e+00   7.5890788e+03
 4.4608598e+00   7.5522127e+03
 4.4655399e+00   7.5059915e+03
 4.4702201e+00   7.5194621e+03
 4.4748998e+00   7.4934581e+03
 4.4795799e+00   7.4418769e+03
 4.4842601e+00   7.4614510e+03
 4.4889398e+00   7.3925648e+03
 4.4936199e+00   7.3967960e+03
 4.4983001e+00   7.3717142e+03
 4.5029802e+00   7.3160046e+03
 4.5076599e+00   7.3043028e+03
 4.5123401e+00   7.2667502e+03
 4.5170202e+00   7.1997369e+03
 4.5216999e+00   7.2050851e+03
 4.5263801e+00   7.1756092e+03
 4.5310602e+00   7.1493713e+03
 4.5357399e+00   7.1322877e+03
 4.5404201e+00   7.0998465e+03
 4.5451002e+00   7.0820486e+03
 4.5497799e+00   7.0710273e+03
 4.5544600e+00   7.0427005e+03
 4.5591402e+00   7.0480127e+03
 4.5638199e+00   7.0190263e+03
 4.5685000e+00   6.9526221e+03
 4.5731802e+00   6.9946026e+03
 4.5778599e+00   6.9564605e+03
 4.5825400e+00   6.9522177e+03
 4.5872202e+00   6.9360813e+03
 4.5918999e+00   6.9172901e+03
 4.5965800e+00   6.9063697e+03
 4.6012602e+00   6.8938358e+03
 4.6059399e+00   6.8708125e+03
 4.6106200e+00   6.8602931e+03
 4.6153002e+00   6.8345013e+03
 4.6199799e+00   6.8056041e+03
 4.6246600e+00   6.7994194e+03
 4.6293402e+00   6.7844202e+03
 4.6340199e+00   6.7633603e+03
 4.6387000e+00   6.7850387e+03
 4.6433802e+00   6.7393025e+03
 4.6480598e+00   6.7427800e+03
 4.6527400e+00   6.7214459e+03
 4.6574202e+00   6.6910164e+03
 4.6620998e+00   6.7114868e+03
 4.6667800e+00   6.6974956e+03
 4.6714602e+00   6.6697529e+03
 4.6761398e+00   6.6674358e+03
 4.6808200e+00   6.6507838e+03
 4.6855001e+00   6.6564695e+03
 4.6901798e+00   6.6549020e+03
 4.6948600e+00   6.6435623e+03
 4.6995401e+00   6.6315327e+03
 4.7042198e+00   6.6390021e+03
 4.7089000e+00   6.6408563e+03
 4.7135801e+00   6.6627069e+03
 4.7182598e+00   6.6575639e+03
 4.7229400e+00   6.6895461e+03
 4.7276201e+00   6.6773521e+03
 4.7322998e+00   6.7318085e+03
 4.7369800e+00   6.7347717e+03
 4.7416601e+00   6.7579975e+03
 4.7463398e+00   6.7800811e+03
 4.7510200e+00   6.8066778e+03
 4.7557001e+00   6.8175880e+03
 4.7603798e+00   6.8563422e+03
 4.7650599e+00   6.9020356e+03
 4.7697401e+00   6.9512937e+03
 4.7744198e+00   7.0168485e+03
 4.7790999e+00   7.0996898e+03
 4.7837801e+00   7.1730711e+03
 4.7884598e+00   7.3105557e+03
 4.7931399e+00   7.4456055e+03
 4.7978201e+00   7.6124825e+03
 4.8024998e+00   7.7980913e+03
 4.8071799e+00   8.0155760e+03
 4.8118601e+00   8.2595666e+03
 4.8165398e+00   8.5293851e+03
 4.8212199e+00   8.8310140e+03
 4.8259001e+00   9.0963972e+03
 4.8305802e+00   9.3893545e+03
 4.8352599e+00   9.6049808e+03
 4.8399401e+00   9.7657670e+03
 4.8446202e+00   9.7949969e+03
 4.8492999e+00   9.7315040e+03
 4.8539801e+00   9.5251546e+03
 4.8586602e+00   9.2596075e+03
 4.8633399e+00   8.9216953e+03
 4.8680201e+00   8.5978860e+03
 4.8727002e+00   8.2264670e+03
 4.8773799e+00   7.9518755e+03
 4.8820601e+00   7.7380156e+03
 4.8867402e+00   7.5338260e+03
 4.8914199e+00   7.4384189e+03
 4.8961000e+00   7.3669194e+03
 4.9007802e+00   7.3067980e+03
 4.9054599e+00   7.3217258e+03
 4.9101400e+00   7.3375918e+03
 4.9148202e+00   7.3533305e+03
 4.9194999e+00   7.4113223e+03
 4.9241800e+00   7.4716399e+03
 4.9288602e+00   7.5630989e+03
 4.9335399e+00   7.6619815e+03
 4.9382200e+00   7.7850824e+03
 4.9429002e+00   7.8983630e+03
 4.9475799e+00   8.1200030e+03
 4.9522600e+00   8.3154478e+03
 4.9569402e+00   8.5599012e+03
 4.9616199e+00   8.8474352e+03
 4.9663000e+00   9.1827046e+03
 4.9709802e+00   9.5000084e+03
 4.9756598e+00   9.8699607e+03
 4.9803400e+00   1.0201069e+04
 4.9850202e+00   1.0519225e+04
 4.9896998e+00   1.0736823e+04
 4.9943800e+00   1.0896630e+04
 4.9990602e+00   1.0948403e+04
 5.0037398e+00   1.0885785e+04
 5.0084200e+00   1.0710345e+04
 5.0131001e+00   1.0427160e+04
 5.0177798e+00   1.0098768e+04
 5.0224600e+00   9.6921960e+03
 5.0271401e+00   9.2786523e+03
 5.0318198e+00   8.8405326e+03
 5.0365000e+00   8.4921544e+03
 5.0411801e+00   8.1164161e+03
 5.0458598e+00   7.8329103e+03
 5.0505400e+00   7.5603094e+03
 5.0552201e+00   7.3950966e+03
 5.0598998e+00   7.2085633e+03
 5.0645800e+00   7.1037292e+03
 5.0692601e+00   7.0307088e+03
 5.0739398e+00   7.0148160e+03
 5.0786200e+00   7.0543412e+03
 5.0833001e+00   7.1564118e+03
 5.0879798e+00   7.1808254e+03
 5.0926600e+00   7.3198047e+03
 5.0973401e+00   7.4296809e+03
 5.1020198e+00   7.8044633e+03
 5.1066999e+00   8.1263298e+03
 5.1113801e+00   8.1370667e+03
 5.1160598e+00   7.9539764e+03
 5.1207399e+00   8.2415068e+03
 5.1254201e+00   8.9525942e+03
 5.1300998e+00   1.0313800e+04
 5.1347799e+00   1.1416217e+04
 5.1394601e+00   1.2896400e+04
 5.1441398e+00   1.3184574e+04
 5.1488199e+00   1.3443361e+04
 5.1535001e+00   1.2333303e+04
 5.1581802e+00   1.1333415e+04
 5.1628599e+00   9.7992950e+03
 5.1675401e+00   8.7491504e+03
 5.1722202e+00   7.7873532e+03
 5.1768999e+00   7.2323901e+03
 5.1815801e+00   6.7673405e+03
 5.1862602e+00   6.6973637e+03
 5.1909399e+00   6.7863866e+03
 5.1956201e+00   6.7144307e+03
 5.2003002e+00   6.6231459e+03
 5.2049799e+00   6.4436469e+03
 5.2096601e+00   6.3849423e+03
 5.2143402e+00   6.3682548e+03
 5.2190199e+00   6.3127701e+03
 5.2237000e+00   6.2531706e+03
 5.2283802e+00   6.1945048e+03
 5.2330599e+00   6.1583039e+03
 5.2377400e+00   6.1357357e+03
 5.2424202e+00   6.1107575e+03
 5.2470999e+00   6.0856437e+03
 5.2517800e+00   6.0683707e+03
 5.2564602e+00   6.0346089e+03
 5.2611399e+00   6.0228716e+03
 5.2658200e+00   6.0070604e+03
 5.2705002e+00   6.0100589e+03
 5.2751799e+00   5.9686564e+03
 5.2798600e+00   5.9884913e+03
 5.2845402e+00   5.9536261e+03
 5.2892199e+00   5.9686763e+03
 5.2939000e+00   5.9387337e+03
 5.2985802e+00   5.9286056e+03
 5.3032598e+00   5.9457928e+03
 5.3079400e+00   5.9198571e+03
 5.3126202e+00   5.9162735e+03
 5.3172998e+00   5.9286482e+03
 5.3219800e+00   5.9032362e+03
 5.3266602e+00   5.9243641e+03
 5.3313398e+00   5.8957463e+03
 5.3360200e+00   5.8847578e+03
 5.3407001e+00   5.8966473e+03
 5.3453798e+00   5.8541091e+03
 5.3500600e+00   5.8595936e+03
 5.3547401e+00   5.8843079e+03
 5.3594198e+00   5.8460694e+03
 5.3641000e+00   5.8798556e+03
 5.3687801e+00   5.8544147e+03
 5.3734598e+00   5.8453035e+03
 5.3781400e+00   5.8846349e+03
 5.3828201e+00   5.8590334e+03
 5.3874998e+00   5.8566109e+03
 5.3921800e+00   5.8631036e+03
 5.3968601e+00   5.8622349e+03
 5.4015398e+00   5.8582974e+03
 5.4062200e+00   5.8718400e+03
 5.4109001e+00   5.8473227e+03
 5.4155798e+00   5.8848299e+03
 5.4202600e+00   5.8710737e+03
 5.4249401e+00   5.8594191e+03
 5.4296198e+00   5.8894152e+03
 5.4342999e+00   5.8765526e+03
 5.4389801e+00   5.8873259e+03
 5.4436598e+00   5.9085685e+03
 5.4483399e+00   5.8942457e+03
 5.4530201e+00   5.9411708e+03
 5.4576998e+00   5.9350756e+03
 5.4623799e+00   5.9280375e+03
 5.4670601e+00   5.9889208e+03
 5.4717398e+00   5.9908442e+03
 5.4764199e+00   6.0125148e+03
 5.4811001e+00   6.0616181e+03
 5.4857798e+00   6.0772435e+03
 5.4904599e+00   6.1188552e+03
 5.4951401e+00   6.1653669e+03
 5.4998202e+00   6.2106408e+03
 5.5044999e+00   6.3058834e+03
 5.5091801e+00   6.3487175e+03
 5.5138602e+00   6.4595158e+03
 5.5185399e+00   6.6090265e+03
 5.5232201e+00   6.7311145e+03
 5.5279002e+00   6.9066218e+03
 5.5325799e+00   7.1480452e+03
 5.5372601e+00   7.3290040e+03
 5.5419402e+00   7.6301712e+03
 5.5466199e+00   7.8638031e+03
 5.5513000e+00   8.1115993e+03
 5.5559802e+00   8.3619826e+03
 5.5606599e+00   8.5195535e+03
 5.5653400e+00   8.6537688e+03
 5.5700202e+00   8.7369806e+03
 5.5746999e+00   8.7524701e+03
 5.5793800e+00   8.7493182e+03
 5.5840602e+00   8.6910321e+03
 5.5887399e+00   8.5575103e+03
 5.5934200e+00   8.5427440e+03
 5.5981002e+00   8.5646921e+03
 5.6027799e+00   8.7439223e+03
 5.6074600e+00   8.1415902e+03
 5.6121402e+00   7.8549941e+03
 5.6168199e+00   7.5651143e+03
 5.6215000e+00   7.3489248e+03
 5.6261802e+00   7.1715794e+03
 5.6308599e+00   7.0600519e+03
 5.6355400e+00   6.9194688e+03
 5.6402202e+00   6.7878309e+03
 5.6448998e+00   6.7364537e+03
 5.6495800e+00   6.6246382e+03
 5.6542602e+00   6.5425695e+03
 5.6589398e+00   6.4915002e+03
 5.6636200e+00   6.4067548e+03
 5.6683002e+00   6.3814879e+03
 5.6729798e+00   6.3040829e+03
 5.6776600e+00   6.2534024e+03
 5.6823401e+00   6.2558106e+03
 5.6870198e+00   6.2086900e+03
 5.6917000e+00   6.1597897e+03
 5.6963801e+00   6.1755742e+03
 5.7010598e+00   6.1182542e+03
 5.7057400e+00   6.1281090e+03
 5.7104201e+00   6.1207649e+03
 5.7150998e+00   6.0701642e+03
 5.7197800e+00   6.1003665e+03
 5.7244601e+00   6.0731262e+03
 5.7291398e+00   6.0763236e+03
 5.7338200e+00   6.0955369e+03
 5.7385001e+00   6.0819042e+03
 5.7431798e+00   6.1105899e+03
 5.7478600e+00   6.1342020e+03
 5.7525401e+00   6.1210247e+03
 5.7572198e+00   6.1746956e+03
 5.7618999e+00   6.1574393e+03
 5.7665801e+00   6.1409006e+03
 5.7712598e+00   6.1953794e+03
 5.7759399e+00   6.1570692e+03
 5.7806201e+00   6.1472574e+03
 5.7852998e+00   6.1794326e+03
 5.7899799e+00   6.1308694e+03
 5.7946601e+00   6.1568028e+03
 5.7993398e+00   6.1615557e+03
 5.8040199e+00   6.1154716e+03
 5.8087001e+00   6.1753626e+03
 5.8133798e+00   6.1456098e+03
 5.8180599e+00   6.1415640e+03
 5.8227401e+00   6.2127025e+03
 5.8274202e+00   6.1793595e+03
 5.8320999e+00   6.2222014e+03
 5.8367801e+00   6.2514494e+03
 5.8414602e+00   6.2573800e+03
 5.8461399e+00   6.3168822e+03
 5.8508201e+00   6.3463438e+03
 5.8555002e+00   6.3659800e+03
 5.8601799e+00   6.4546093e+03
 5.8648601e+00   6.4958024e+03
 5.8695402e+00   6.5617269e+03
 5.8742199e+00   6.6553140e+03
 5.8789001e+00   6.6999904e+03
 5.8835802e+00   6.8375549e+03
 5.8882599e+00   6.9754414e+03
 5.8929400e+00   7.0662703e+03
 5.8976202e+00   7.2776365e+03
 5.9022999e+00   7.4324209e+03
 5.9069800e+00   7.6868824e+03
 5.9116602e+00   8.0560011e+03
 5.9163399e+00   8.4387392e+03
 5.9210200e+00   8.8616063e+03
 5.9257002e+00   9.1896765e+03
 5.9303799e+00   9.9115637e+03
 5.9350600e+00   1.0427790e+04
 5.9397402e+00   1.1035031e+04
 5.9444199e+00   1.1272623e+04
 5.9491000e+00   1.1426080e+04
 5.9537802e+00   1.1382139e+04
 5.9584599e+00   1.1244013e+04
 5.9631400e+00   1.1125501e+04
 5.9678202e+00   1.1098846e+04
 5.9724998e+00   1.1054181e+04
 5.9771800e+00   1.0945845e+04
 5.9818602e+00   1.0796055e+04
 5.9865398e+00   1.0650755e+04
 5.9912200e+00   1.0464716e+04
 5.9959002e+00   1.0200318e+04
 6.0005798e+00   9.9399732e+03
 6.0052600e+00   9.6029530e+03
 6.0099401e+00   9.3076695e+03
 6.0146198e+00   8.9844453e+03
 6.0193000e+00   8.6320783e+03
 6.0239801e+00   8.3862451e+03
 6.0286598e+00   8.0757801e+03
 6.0333400e+00   7.8052663e+03
 6.0380201e+00   7.6218415e+03
 6.0426998e+00   7.3787206e+03
 6.0473800e+00   7.1756562e+03
 6.0520601e+00   7.0261970e+03
 6.0567398e+00   6.8367593e+03
 6.0614200e+00   6.7529299e+03
 6.0661001e+00   6.6242672e+03
 6.0707798e+00   6.5223799e+03
 6.0754600e+00   6.4614684e+03
 6.0801401e+00   6.3766272e+03
 6.0848198e+00   6.3114023e+03
 6.0895000e+00   6.2852739e+03
 6.0941801e+00   6.2048303e+03
 6.0988598e+00   6.1952241e+03
 6.1035399e+00   6.1643249e+03
 6.1082201e+00   6.1162016e+03
 6.1128998e+00   6.1133489e+03
 6.1175799e+00   6.0712419e+03
 6.1222601e+00   6.0547138e+03
 6.1269398e+00   6.0503551e+03
 6.1316199e+00   6.0169233e+03
 6.1363001e+00   6.0066378e+03
 6.1409798e+00   6.0085111e+03
 6.1456599e+00   5.9734418e+03
 6.1503401e+00   5.9926152e+03
 6.1550202e+00   5.9713688e+03
 6.1596999e+00   5.9595507e+03
 6.1643801e+00   5.9717277e+03
 6.1690602e+00   5.9671425e+03
 6.1737399e+00   5.9446454e+03
 6.1784201e+00   5.9657774e+03
 6.1831002e+00   5.9405691e+03
 6.1877799e+00   5.9495008e+03
 6.1924601e+00   5.9428703e+03
 6.1971402e+00   5.9404176e+03
 6.2018199e+00   5.9586824e+03
 6.2065001e+00   5.9358776e+03
 6.2111802e+00   5.9440403e+03
 6.2158599e+00   5.9683879e+03
 6.2205400e+00   5.9148123e+03
 6.2252202e+00   5.9401588e+03
 6.2298999e+00   5.9524970e+03
 6.2345800e+00   5.9160179e+03
 6.2392602e+00   5.9454889e+03
 6.2439399e+00   5.9425223e+03
 6.2486200e+00   5.9295254e+03
 6.2533002e+00   5.9378357e+03
 6.2579799e+00   5.9537635e+03
 6.2626600e+00   5.9406948e+03
 6.2673402e+00   5.9615645e+03
 6.2720199e+00   5.9196123e+03
 6.2767000e+00   5.9530556e+03
 6.2813802e+00   5.9422019e+03
 6.2860599e+00   5.9549925e+03
 6.2907400e+00   5.9490199e+03
 6.2954202e+00   5.9703698e+03
 6.3000998e+00   5.9500499e+03
 6.3047800e+00   5.9875967e+03
 6.3094602e+00   5.9526015e+03
 6.3141398e+00   5.9947526e+03
 6.3188200e+00   5.9881314e+03
 6.3235002e+00   5.9818316e+03
 6.3281798e+00   6.0201658e+03
 6.3328600e+00   6.0093895e+03
 6.3375401e+00   6.0308757e+03
 6.3422198e+00   6.0219750e+03
 6.3469000e+00   6.0116002e+03
 6.3515801e+00   6.0251584e+03
 6.3562598e+00   6.0409959e+03
 6.3609400e+00   6.0047923e+03
 6.3656201e+00   6.0388477e+03
 6.3702998e+00   6.0213594e+03
 6.3749800e+00   6.0437661e+03
 6.3796601e+00   6.0325944e+03
 6.3843398e+00   6.0582051e+03
 6.3890200e+00   6.0505832e+03
 6.3937001e+00   6.0675879e+03
 6.3983798e+00   6.0574032e+03
 6.4030600e+00   6.0932736e+03
 6.4077401e+00   6.1010799e+03
 6.4124198e+00   6.1036088e+03
 6.4171000e+00   6.1535122e+03
 6.4217801e+00   6.1472022e+03
 6.4264598e+00   6.1504872e+03
 6.4311399e+00   6.1650615e+03
 6.4358201e+00   6.1811640e+03
 6.4404998e+00   6.1954924e+03
 6.4451799e+00   6.2136330e+03
 6.4498601e+00   6.1876219e+03
 6.4545398e+00   6.2252736e+03
 6.4592199e+00   6.2061160e+03
 6.4639001e+00   6.2498392e+03
 6.4685798e+00   6.2271530e+03
 6.4732599e+00   6.2689699e+03
 6.4779401e+00   6.2418589e+03
 6.4826198e+00   6.2818083e+03
 6.4872999e+00   6.2477661e+03
 6.4919801e+00   6.3116376e+03
 6.4966602e+00   6.3062348e+03
 6.5013399e+00   6.2896774e+03
 6.5060201e+00   6.3420931e+03
 6.5107002e+00   6.3186008e+03
 6.5153799e+00   6.3629758e+03
 6.5200601e+00   6.3614037e+03
 6.5247402e+00   6.4042610e+03
 6.5294199e+00   6.3376073e+03
 6.5341001e+00   6.4185311e+03
 6.5387802e+00   6.3752902e+03
 6.5434599e+00   6.4400106e+03
 6.5481400e+00   6.4215234e+03
 6.5528202e+00   6.5119033e+03
 6.5574999e+00   6.4545719e+03
 6.5621800e+00   6.5058535e+03
 6.5668602e+00   6.4815992e+03
 6.5715399e+00   6.5711276e+03
 6.5762200e+00   6.4940985e+03
 6.5809002e+00   6.6135570e+03
 6.5855799e+00   6.5516627e+03
 6.5902600e+00   6.6019767e+03
 6.5949402e+00   6.6105541e+03
 6.5996199e+00   6.6382230e+03
 6.6043000e+00   6.7061645e+03
 6.6089802e+00   6.6903762e+03
 6.6136599e+00   6.7138963e+03
 6.6183400e+00   6.7369935e+03
 6.6230202e+00   6.7747439e+03
 6.6276999e+00   6.7503048e+03
 6.6323800e+00   6.8605514e+03
 6.6370602e+00   6.7876160e+03
 6.6417398e+00   6.8934030e+03
 6.6464200e+00   6.8773289e+03
 6.6511002e+00   6.9587023e+03
 6.6557798e+00   6.9187976e+03
 6.6604600e+00   7.0640889e+03
 6.6651402e+00   6.9574770e+03
 6.6698198e+00   7.0716517e+03
 6.6745000e+00   6.9885772e+03
 6.6791801e+00   7.1069566e+03
 6.6838598e+00   7.1179097e+03
 6.6885400e+00   7.1160505e+03
 6.6932201e+00   7.1804249e+03
 6.6978998e+00   7.1523402e+03
 6.7025800e+00   7.2137069e+03
 6.7072601e+00   7.2132238e+03
 6.7119398e+00   7.2765096e+03
 6.7166200e+00   7.2502008e+03
 6.7213001e+00   7.3854705e+03
 6.7259798e+00   7.2770843e+03
 6.7306600e+00   7.4393209e+03
 6.7353401e+00   7.4104537e+03
 6.7400198e+00   7.5328816e+03
 6.7447000e+00   7.4552004e+03
 6.7493801e+00   7.5406101e+03
 6.7540598e+00   7.4927325e+03
 6.7587399e+00   7.6795990e+03
 6.7634201e+00   7.6260101e+03
 6.7680998e+00   7.7153465e+03
 6.7727799e+00   7.7974712e+03
 6.7774601e+00   7.7251961e+03
 6.7821398e+00   7.8832553e+03
 6.7868199e+00   7.8907270e+03
 6.7915001e+00   8.0324987e+03
 6.7961798e+00   7.9845654e+03
 6.8008599e+00   8.1437636e+03
 6.8055401e+00   8.0687938e+03
 6.8102198e+00   8.3189735e+03
 6.8148999e+00   8.3509889e+03
 6.8195801e+00   8.5972836e+03
 6.8242602e+00   8.5531702e+03
 6.8289399e+00   8.9570534e+03
 6.8336201e+00   8.8813189e+03
 6.8383002e+00   9.5401090e+03
 6.8429799e+00   1.0418369e+04
 6.8476601e+00   1.1666708e+04
 6.8523402e+00   1.4481893e+04
 6.8570199e+00   1.4944137e+04
 6.8617001e+00   2.1322225e+04
 6.8663802e+00   2.9729651e+04
 6.8710599e+00   3.6936395e+04
 6.8757401e+00   4.1395782e+04
 6.8804202e+00   2.9202005e+04
 6.8850999e+00   3.2052816e+04
 6.8897800e+00   2.5661623e+04
 6.8944602e+00   2.3562565e+04
 6.8991399e+00   1.8599803e+04
 6.9038200e+00   1.4250231e+04
 6.9085002e+00   1.2280349e+04
 6.9131799e+00   1.1168800e+04
 6.9178600e+00   1.1046649e+04
 6.9225402e+00   1.0623929e+04
 6.9272199e+00   1.0664319e+04
 6.9319000e+00   1.0403102e+04
 6.9365802e+00   1.0295883e+04
 6.9412599e+00   1.0126831e+04
 6.9459400e+00   1.0026920e+04
 6.9506202e+00   1.0118680e+04
 6.9552999e+00   9.9274162e+03
 6.9599800e+00   9.9026160e+03
 6.9646602e+00   9.5741215e+03
 6.9693398e+00   9.4877905e+03
 6.9740200e+00   9.3815920e+03
 6.9787002e+00   9.4002980e+03
 6.9833798e+00   9.0773007e+03
 6.9880600e+00   9.1802042e+03
 6.9927402e+00   8.8323286e+03
 6.9974198e+00   8.8961826e+03
 7.0021000e+00   8.6540383e+03
 7.0067801e+00   8.7505684e+03
 7.0114598e+00   8.5534177e+03
 7.0161400e+00   8.5115553e+03
 7.0208201e+00   8.3672768e+03
 7.0254998e+00   8.3183091e+03
 7.0301800e+00   8.2566100e+03
 7.0348601e+00   8.2354448e+03
 7.0395398e+00   8.2067504e+03
 7.0442200e+00   8.0583373e+03
 7.0489001e+00   8.0973910e+03
 7.0535798e+00   7.9696996e+03
 7.0582600e+00   8.0272592e+03
 7.0629401e+00   7.9963229e+03
 7.0676198e+00   7.9569069e+03
 7.0723000e+00   7.8466210e+03
 7.0769801e+00   7.7880350e+03
 7.0816598e+00   7.6569840e+03
 7.0863400e+00   7.7479559e+03
 7.0910201e+00   7.5141467e+03
 7.0956998e+00   7.5420489e+03
 7.1003799e+00   7.4580089e+03
 7.1050601e+00   7.4153994e+03
 7.1097398e+00   7.3480524e+03
 7.1144199e+00   7.3536572e+03
 7.1191001e+00   7.3010003e+03
 7.1237798e+00   7.2794885e+03
 7.1284599e+00   7.2418716e+03
 7.1331401e+00   7.1955871e+03
 7.1378198e+00   7.2165011e+03
 7.1424999e+00   7.1616144e+03
 7.1471801e+00   7.1691718e+03
 7.1518602e+00   7.1236810e+03
 7.1565399e+00   7.1377998e+03
 7.1612201e+00   7.0821569e+03
 7.1659002e+00   7.1023617e+03
 7.1705799e+00   7.0319930e+03
 7.1752601e+00   7.1081153e+03
 7.1799402e+00   7.0012253e+03
 7.1846199e+00   7.0489755e+03
 7.1893001e+00   7.0069603e+03
 7.1939802e+00   7.0186348e+03
 7.1986599e+00   6.9714417e+03
 7.2033401e+00   6.9783236e+03
 7.2080202e+00   6.9496396e+03
 7.2126999e+00   6.9646975e+03
 7.2173800e+00   6.9289814e+03
 7.2220602e+00   6.9282179e+03
 7.2267399e+00   6.9412065e+03
 7.2314200e+00   6.9047920e+03
 7.2361002e+00   6.9269555e+03
 7.2407799e+00   6.8985265e+03
 7.2454600e+00   6.9230600e+03
 7.2501402e+00   6.9161158e+03
 7.2548199e+00   6.9366590e+03
 7.2595000e+00   6.8946228e+03
 7.2641802e+00   6.9645987e+03
 7.2688599e+00   6.8907599e+03
 7.2735400e+00   6.9448443e+03
 7.2782202e+00   6.8892501e+03
 7.2828999e+00   6.9248703e+03
 7.2875800e+00   6.8899824e+03
 7.2922602e+00   6.8862617e+03
 7.2969398e+00   6.8534412e+03
 7.3016200e+00   6.8863414e+03
 7.3063002e+00   6.8597869e+03
 7.3109798e+00   6.8598378e+03
 7.3156600e+00   6.8811251e+03
 7.3203402e+00   6.8726285e+03
 7.3250198e+00   6.9076936e+03
 7.3297000e+00   6.8889543e+03
 7.3343801e+00   6.8993496e+03
 7.3390598e+00   6.9070434e+03
 7.3437400e+00   6.9216631e+03
 7.3484201e+00   6.9115169e+03
 7.3530998e+00   6.9494010e+03
 7.3577800e+00   6.9365828e+03
 7.3624601e+00   6.9623287e+03
 7.3671398e+00   6.9537370e+03
 7.3718200e+00   6.9906506e+03
 7.3765001e+00   6.9889671e+03
 7.3811798e+00   6.9941657e+03
 7.3858600e+00   7.0165974e+03
 7.3905401e+00   7.0369813e+03
 7.3952198e+00   7.0495660e+03
 7.3999000e+00   7.0771239e+03
 7.4045801e+00   7.1070126e+03
 7.4092598e+00   7.1274243e+03
 7.4139400e+00   7.1832210e+03
 7.4186201e+00   7.1988802e+03
 7.4232998e+00   7.2518844e+03
 7.4279799e+00   7.2981973e+03
 7.4326601e+00   7.3587701e+03
 7.4373398e+00   7.3893551e+03
 7.4420199e+00   7.4464939e+03
 7.4467001e+00   7.4791473e+03
 7.4513798e+00   7.5201778e+03
 7.4560599e+00   7.5416936e+03
 7.4607401e+00   7.5567969e+03
 7.4654198e+00   7.5706185e+03
 7.4700999e+00   7.5522536e+03
 7.4747801e+00   7.5547194e+03
 7.4794598e+00   7.5225828e+03
 7.4841399e+00   7.5132947e+03
 7.4888201e+00   7.4649699e+03
 7.4935002e+00   7.4287131e+03
 7.4981799e+00   7.3884061e+03
 7.5028601e+00   7.3693997e+03
 7.5075402e+00   7.2962393e+03
 7.5122199e+00   7.2695814e+03
 7.5169001e+00   7.2022744e+03
 7.5215802e+00   7.1694191e+03
 7.5262599e+00   7.1313456e+03
 7.5309401e+00   7.0781368e+03
 7.5356202e+00   7.0601197e+03
 7.5402999e+00   7.0159998e+03
 7.5449800e+00   7.0103970e+03
 7.5496602e+00   6.9663065e+03
 7.5543399e+00   6.9456686e+03
 7.5590200e+00   6.9104592e+03
 7.5637002e+00   6.9192552e+03
 7.5683799e+00   6.8749211e+03
 7.5730600e+00   6.8845000e+03
 7.5777402e+00   6.8477257e+03
 7.5824199e+00   6.8405761e+03
 7.5871000e+00   6.8099632e+03
 7.5917802e+00   6.8051212e+03
 7.5964599e+00   6.7858625e+03
 7.6011400e+00   6.7803129e+03
 7.6058202e+00   6.7347302e+03
 7.6104999e+00   6.7220643e+03
 7.6151800e+00   6.7112199e+03
 7.6198602e+00   6.6345320e+03
 7.6245399e+00   6.6402056e+03
 7.6292200e+00   6.5724506e+03
 7.6339002e+00   6.5673701e+03
 7.6385798e+00   6.5058175e+03
 7.6432600e+00   6.5279997e+03
 7.6479402e+00   6.4867766e+03
 7.6526198e+00   6.4877519e+03
 7.6573000e+00   6.4290062e+03
 7.6619802e+00   6.4509389e+03
 7.6666598e+00   6.4023509e+03
 7.6713400e+00   6.4351102e+03
 7.6760201e+00   6.3824625e+03
 7.6806998e+00   6.4074810e+03
 7.6853800e+00   6.3738824e+03
 7.6900601e+00   6.4070013e+03
 7.6947398e+00   6.3844345e+03
 7.6994200e+00   6.3738711e+03
 7.7041001e+00   6.4000115e+03
 7.7087798e+00   6.3755054e+03
 7.7134600e+00   6.3900865e+03
 7.7181401e+00   6.3500925e+03
 7.7228198e+00   6.4041384e+03
 7.7275000e+00   6.3590282e+03
 7.7321801e+00   6.3872461e+03
 7.7368598e+00   6.3452020e+03
 7.7415400e+00   6.4017223e+03
 7.7462201e+00   6.3455997e+03
 7.7508998e+00   6.4053296e+03
 7.7555799e+00   6.3387154e+03
 7.7602601e+00   6.4283016e+03
 7.7649398e+00   6.3506561e+03
 7.7696199e+00   6.4110854e+03
 7.7743001e+00   6.3729572e+03
 7.7789798e+00   6.3881677e+03
 7.7836599e+00   6.4037830e+03
 7.7883401e+00   6.3848705e+03
 7.7930198e+00   6.4316327e+03
 7.7976999e+00   6.4012766e+03
 7.8023801e+00   6.4359339e+03
 7.8070598e+00   6.4271020e+03
 7.8117399e+00   6.4346830e+03
 7.8164201e+00   6.4180416e+03
 7.8211002e+00   6.4807482e+03
 7.8257799e+00   6.4041670e+03
 7.8304601e+00   6.5061101e+03
 7.8351402e+00   6.4496334e+03
 7.8398199e+00   6.5262592e+03
 7.8445001e+00   6.4375035e+03
 7.8491802e+00   6.5360227e+03
 7.8538599e+00   6.4531612e+03
 7.8585401e+00   6.6273862e+03
 7.8632202e+00   6.5120537e+03
 7.8678999e+00   6.5841976e+03
 7.8725801e+00   6.5857223e+03
 7.8772602e+00   6.6366394e+03
 7.8819399e+00   6.6880311e+03
 7.8866200e+00   6.7317544e+03
 7.8913002e+00   6.8534034e+03
 7.8959799e+00   6.7374968e+03
 7.9006600e+00   7.0926309e+03
 7.9053402e+00   6.9280218e+03
 7.9100199e+00   7.8990910e+03
 7.9147000e+00   7.8321056e+03
 7.9193802e+00   1.0002958e+04
 7.9240599e+00   8.4053630e+03
 7.9287400e+00   1.7918782e+04
 7.9334202e+00   1.1404732e+04
 7.9380999e+00   2.6389370e+04
 7.9427800e+00   1.9769679e+04
 7.9474602e+00   2.5590550e+04
 7.9521399e+00   1.6191363e+04
 7.9568200e+00   2.3431818e+04
 7.9615002e+00   1.2675812e+04
 7.9661798e+00   1.2466365e+04
 7.9708600e+00   1.0091610e+04
 7.9755402e+00   7.9447669e+03
 7.9802198e+00   7.5478349e+03
 7.9849000e+00   7.0734211e+03
 7.9895802e+00   6.9875602e+03
 7.9942598e+00   6.7526008e+03
 7.9989400e+00   6.6858528e+03
 8.0036201e+00   6.4844248e+03
 8.0082998e+00   6.5278495e+03
 8.0129805e+00   6.4112400e+03
 8.0176601e+00   6.5152142e+03
 8.0223398e+00   6.3179158e+03
 8.0270205e+00   6.3831164e+03
 8.0317001e+00   6.2499363e+03
 8.0363798e+00   6.3515181e+03
 8.0410604e+00   6.2923369e+03
 8.0457401e+00   6.2852691e+03
 8.0504198e+00   6.2299985e+03
 8.0551004e+00   6.1938306e+03
 8.0597801e+00   6.2115478e+03
 8.0644598e+00   6.1625249e+03
 8.0691404e+00   6.2550611e+03
 8.0738201e+00   6.1443318e+03
 8.0784998e+00   6.1934131e+03
 8.0831804e+00   6.1117219e+03
 8.0878601e+00   6.2130417e+03
 8.0925398e+00   6.1093573e+03
 8.0972204e+00   6.2226386e+03
 8.1019001e+00   6.1258716e+03
 8.1065798e+00   6.2043626e+03
 8.1112604e+00   6.1205545e+03
 8.1159401e+00   6.1933070e+03
 8.1206198e+00   6.1440308e+03
 8.1253004e+00   6.1585496e+03
 8.1299801e+00   6.1497820e+03
 8.1346598e+00   6.1327250e+03
 8.1393404e+00   6.1220368e+03
 8.1440201e+00   6.1020988e+03
 8.1486998e+00   6.1506627e+03
 8.1533804e+00   6.0746271e+03
 8.1580601e+00   6.1400113e+03
 8.1627398e+00   6.0627220e+03
 8.1674204e+00   6.1359821e+03
 8.1721001e+00   6.0720646e+03
 8.1767797e+00   6.1440831e+03
 8.1814604e+00   6.0837520e+03
 8.1861401e+00   6.1620420e+03
 8.1908197e+00   6.1160325e+03
 8.1955004e+00   6.1859413e+03
 8.2001801e+00   6.1952807e+03
 8.2048597e+00   6.2540258e+03
 8.2095404e+00   6.2812820e+03
 8.2142200e+00   6.3479845e+03
 8.2188997e+00   6.4119909e+03
 8.2235804e+00   6.4596733e+03
 8.2282600e+00   6.5615210e+03
 8.2329397e+00   6.5956384e+03
 8.2376204e+00   6.7303440e+03
 8.2423000e+00   6.7875191e+03
 8.2469797e+00   6.9205113e+03
 8.2516603e+00   6.9909210e+03
 8.2563400e+00   7.1570367e+03
 8.2610197e+00   7.2440961e+03
 8.2657003e+00   7.3800543e+03
 8.2703800e+00   7.4903599e+03
 8.2750597e+00   7.6486220e+03
 8.2797403e+00   7.7496215e+03
 8.2844200e+00   7.8672270e+03
 8.2890997e+00   7.9534031e+03
 8.2937803e+00   8.0143289e+03
 8.2984600e+00   8.0801963e+03
 8.3031397e+00   8.0666467e+03
 8.3078203e+00   8.0350615e+03
 8.3125000e+00   7.9268074e+03
 8.3171797e+00   7.8372151e+03
 8.3218603e+00   7.6513516e+03
 8.3265400e+00   7.4848753e+03
 8.3312197e+00   7.2798856e+03
 8.3359003e+00   7.1058618e+03
 8.3405800e+00   6.8960744e+03
 8.3452597e+00   6.7347317e+03
 8.3499403e+00   6.5697619e+03
 8.3546200e+00   6.4866754e+03
 8.3592997e+00   6.3428341e+03
 8.3639803e+00   6.2986191e+03
 8.3686600e+00   6.3035665e+03
 8.3733397e+00   6.3996271e+03
 8.3780203e+00   6.5904645e+03
 8.3827000e+00   6.9407833e+03
 8.3873796e+00   7.3341144e+03
 8.3920603e+00   7.9929712e+03
 8.3967400e+00   8.7338346e+03
 8.4014196e+00   9.3613823e+03
 8.4061003e+00   9.9016872e+03
 8.4107800e+00   9.7558847e+03
 8.4154596e+00   9.1573174e+03
 8.4201403e+00   8.6082013e+03
 8.4248199e+00   7.7123875e+03
 8.4294996e+00   7.0855494e+03
 8.4341803e+00   6.6485390e+03
 8.4388599e+00   6.3267618e+03
 8.4435396e+00   6.1205616e+03
 8.4482203e+00   5.9415069e+03
 8.4528999e+00   5.8689045e+03
 8.4575796e+00   5.8404259e+03
 8.4622602e+00   5.7997835e+03
 8.4669399e+00   5.8051636e+03
 8.4716196e+00   5.8008252e+03
 8.4763002e+00   5.8368313e+03
 8.4809799e+00   5.8433216e+03
 8.4856596e+00   5.8852614e+03
 8.4903402e+00   5.9019109e+03
 8.4950199e+00   5.9711429e+03
 8.4996996e+00   6.0085003e+03
 8.5043802e+00   6.0644126e+03
 8.5090599e+00   6.1156373e+03
 8.5137396e+00   6.2193164e+03
 8.5184202e+00   6.2755428e+03
 8.5230999e+00   6.3868228e+03
 8.5277796e+00   6.4800095e+03
 8.5324602e+00   6.5844178e+03
 8.5371399e+00   6.6942080e+03
 8.5418196e+00   6.8125012e+03
 8.5465002e+00   6.9335194e+03
 8.5511799e+00   7.0556843e+03
 8.5558596e+00   7.1757555e+03
 8.5605402e+00   7.2801568e+03
 8.5652199e+00   7.4091522e+03
 8.5698996e+00   7.4729630e+03
 8.5745802e+00   7.5627438e+03
 8.5792599e+00   7.6016855e+03
 8.5839396e+00   7.6533371e+03
 8.5886202e+00   7.6251146e+03
 8.5932999e+00   7.6231508e+03
 8.5979795e+00   7.5509941e+03
 8.6026602e+00   7.4888920e+03
 8.6073399e+00   7.3864916e+03
 8.6120195e+00   7.2995820e+03
 8.6167002e+00   7.1824353e+03
 8.6213799e+00   7.0453229e+03
 8.6260595e+00   6.9465828e+03
 8.6307402e+00   6.8128263e+03
 8.6354198e+00   6.7153645e+03
 8.6400995e+00   6.5832070e+03
 8.6447802e+00   6.4875710e+03
 8.6494598e+00   6.3680094e+03
 8.6541405e+00   6.2847709e+03
 8.6588202e+00   6.1753042e+03
 8.6634998e+00   6.1094753e+03
 8.6681805e+00   6.0298954e+03
 8.6728601e+00   5.9474335e+03
 8.6775398e+00   5.8862748e+03
 8.6822205e+00   5.8177743e+03
 8.6869001e+00   5.7724548e+03
 8.6915798e+00   5.7275140e+03
 8.6962605e+00   5.6809849e+03
 8.7009401e+00   5.6343802e+03
 8.7056198e+00   5.6027896e+03
 8.7103004e+00   5.5708426e+03
 8.7149801e+00   5.5624019e+03
 8.7196598e+00   5.5219849e+03
 8.7243404e+00   5.4939828e+03
 8.7290201e+00   5.4827319e+03
 8.7336998e+00   5.4495870e+03
 8.7383804e+00   5.4216036e+03
 8.7430601e+00   5.4273229e+03
 8.7477398e+00   5.3912018e+03
 8.7524204e+00   5.3930412e+03
 8.7571001e+00   5.3705136e+03
 8.7617798e+00   5.3483625e+03
 8.7664604e+00   5.3427269e+03
 8.7711401e+00   5.3270004e+03
 8.7758198e+00   5.3185089e+03
 8.7805004e+00   5.3203753e+03
 8.7851801e+00   5.2988004e+03
 8.7898598e+00   5.2989952e+03
 8.7945404e+00   5.3006502e+03
 8.7992201e+00   5.2763830e+03
 8.8038998e+00   5.2839723e+03
 8.8085804e+00   5.2728831e+03
 8.8132601e+00   5.2597987e+03
 8.8179398e+00   5.2789512e+03
 8.8226204e+00   5.2759124e+03
 8.8273001e+00   5.2593139e+03
 8.8319798e+00   5.3315605e+03
 8.8366604e+00   5.3276553e+03
 8.8413401e+00   5.4520761e+03
 8.8460197e+00   5.6346737e+03
 8.8507004e+00   5.9024051e+03
 8.8553801e+00   6.0330295e+03
 8.8600597e+00   6.6088346e+03
 8.8647404e+00   6.1540781e+03
 8.8694201e+00   7.0321665e+03
 8.8740997e+00   6.7523069e+03
 8.8787804e+00   6.0820922e+03
 8.8834600e+00   6.7572623e+03
 8.8881397e+00   5.8441347e+03
 8.8928204e+00   5.5291397e+03
 8.8975000e+00   5.5016081e+03
 8.9021797e+00   5.2592435e+03
 8.9068604e+00   5.1975482e+03
 8.9115400e+00   5.1631329e+03
 8.9162197e+00   5.1228099e+03
 8.9209003e+00   5.1035554e+03
 8.9255800e+00   5.1088519e+03
 8.9302597e+00   5.0904795e+03
 8.9349403e+00   5.0760100e+03
 8.9396200e+00   5.0672461e+03
 8.9442997e+00   5.0725163e+03
 8.9489803e+00   5.0628490e+03
 8.9536600e+00   5.0814894e+03
 8.9583397e+00   5.0620116e+03
 8.9630203e+00   5.0621814e+03
 8.9677000e+00   5.0493908e+03
 8.9723797e+00   5.0551998e+03
 8.9770603e+00   5.0502294e+03
 8.9817400e+00   5.0724587e+03
 8.9864197e+00   5.0518057e+03
 8.9911003e+00   5.0500847e+03
 8.9957800e+00   5.0509447e+03
 9.0004597e+00   5.0462892e+03
 9.0051403e+00   5.0360480e+03
 9.0098200e+00   5.0282492e+03
 9.0144997e+00   5.0422616e+03
 9.0191803e+00   5.0288042e+03
 9.0238600e+00   5.0225807e+03
 9.0285397e+00   5.0271401e+03
 9.0332203e+00   5.0185951e+03
 9.0379000e+00   5.0134380e+03
 9.0425797e+00   5.0111763e+03
 9.0472603e+00   5.0072839e+03
 9.0519400e+00   5.0128391e+03
 9.0566196e+00   4.9991448e+03
 9.0613003e+00   5.0064043e+03
 9.0659800e+00   5.0060572e+03
 9.0706596e+00   5.0028443e+03
 9.0753403e+00   4.9925007e+03
 9.0800200e+00   4.9937370e+03
 9.0846996e+00   4.9870939e+03
 9.0893803e+00   4.9941123e+03
 9.0940599e+00   5.0037786e+03
 9.0987396e+00   5.0023947e+03
 9.1034203e+00   5.0024956e+03
 9.1080999e+00   5.0054142e+03
 9.1127796e+00   5.0145509e+03
 9.1174603e+00   5.0287531e+03
 9.1221399e+00   5.0216245e+03
 9.1268196e+00   5.0294936e+03
 9.1315002e+00   5.0457268e+03
 9.1361799e+00   5.0332086e+03
 9.1408596e+00   5.0636524e+03
 9.1455402e+00   5.0497831e+03
 9.1502199e+00   5.0764060e+03
 9.1548996e+00   5.0801852e+03
 9.1595802e+00   5.0986215e+03
 9.1642599e+00   5.1156619e+03
 9.1689396e+00   5.1237160e+03
 9.1736202e+00   5.1327095e+03
 9.1782999e+00   5.1552667e+03
 9.1829796e+00   5.1618247e+03
 9.1876602e+00   5.1818346e+03
 9.1923399e+00   5.2025385e+03
 9.1970196e+00   5.2140600e+03
 9.2017002e+00   5.2234476e+03
 9.2063799e+00   5.2343778e+03
 9.2110596e+00   5.2475740e+03
 9.2157402e+00   5.2667157e+03
 9.2204199e+00   5.2761900e+03
 9.2250996e+00   5.2812192e+03
 9.2297802e+00   5.2853447e+03
 9.2344599e+00   5.2984626e+03
 9.2391396e+00   5.3110118e+03
 9.2438202e+00   5.3254514e+03
 9.2484999e+00   5.3300807e+03
 9.2531796e+00   5.3506803e+03
 9.2578602e+00   5.3471893e+03
 9.2625399e+00   5.3817379e+03
 9.2672195e+00   5.3868099e+03
 9.2719002e+00   5.4101916e+03
 9.2765799e+00   5.4289629e+03
 9.2812595e+00   5.4428102e+03
 9.2859402e+00   5.4517720e+03
 9.2906199e+00   5.4976561e+03
 9.2952995e+00   5.5191314e+03
 9.2999802e+00   5.5452842e+03
 9.3046598e+00   5.5639223e+03
 9.3093395e+00   5.5975637e+03
 9.3140202e+00   5.6253860e+03
 9.3186998e+00   5.6353853e+03
 9.3233805e+00   5.6501175e+03
 9.3280602e+00   5.6875012e+03
 9.3327398e+00   5.6972919e+03
 9.3374205e+00   5.7169279e+03
 9.3421001e+00   5.7314298e+03
 9.3467798e+00   5.7193610e+03
 9.3514605e+00   5.7316336e+03
 9.3561401e+00   5.7097017e+03
 9.3608198e+00   5.7069753e+03
 9.3655005e+00   5.6813051e+03
 9.3701801e+00   5.6525605e+03
 9.3748598e+00   5.6243585e+03
 9.3795404e+00   5.5854018e+03
 9.3842201e+00   5.5440001e+03
 9.3888998e+00   5.5269937e+03
 9.3935804e+00   5.4777194e+03
 9.3982601e+00   5.4235315e+03
 9.4029398e+00   5.4003421e+03
 9.4076204e+00   5.3626347e+03
 9.4123001e+00   5.3212043e+03
 9.4169798e+00   5.2953241e+03
 9.4216604e+00   5.2656871e+03
 9.4263401e+00   5.2307854e+03
 9.4310198e+00   5.2117498e+03
 9.4357004e+00   5.1930814e+03
 9.4403801e+00   5.1803743e+03
 9.4450598e+00   5.1532470e+03
 9.4497404e+00   5.1511789e+03
 9.4544201e+00   5.1343532e+03
 9.4590998e+00   5.1303238e+03
 9.4637804e+00   5.1176743e+03
 9.4684601e+00   5.1137470e+03
 9.4731398e+00   5.1203457e+03
 9.4778204e+00   5.1130215e+03
 9.4825001e+00   5.1079867e+03
 9.4871798e+00   5.1127140e+03
 9.4918604e+00   5.1133751e+03
 9.4965401e+00   5.1161397e+03
 9.5012197e+00   5.1316485e+03
 9.5059004e+00   5.1283430e+03
 9.5105801e+00   5.1217184e+03
 9.5152597e+00   5.1346748e+03
 9.5199404e+00   5.1297122e+03
 9.5246201e+00   5.1230840e+03
 9.5292997e+00   5.1473278e+03
 9.5339804e+00   5.1393836e+03
 9.5386600e+00   5.1482343e+03
 9.5433397e+00   5.1570100e+03
 9.5480204e+00   5.1585010e+03
 9.5527000e+00   5.1762276e+03
 9.5573797e+00   5.1893144e+03
 9.5620604e+00   5.2136224e+03
 9.5667400e+00   5.2168945e+03
 9.5714197e+00   5.2343085e+03
 9.5761003e+00   5.2586016e+03
 9.5807800e+00   5.2728072e+03
 9.5854597e+00   5.2861673e+03
 9.5901403e+00   5.3098514e+03
 9.5948200e+00   5.3201077e+03
 9.5994997e+00   5.3385435e+03
 9.6041803e+00   5.3731827e+03
 9.6088600e+00   5.3873131e+03
 9.6135397e+00   5.4065629e+03
 9.6182203e+00   5.4161186e+03
 9.6229000e+00   5.4189044e+03
 9.6275797e+00   5.4299560e+03
 9.6322603e+00   5.4430667e+03
 9.6369400e+00   5.4533550e+03
 9.6416197e+00   5.4568581e+03
 9.6463003e+00   5.4645006e+03
 9.6509800e+00   5.4856258e+03
 9.6556597e+00   5.4861699e+03
 9.6603403e+00   5.5124481e+03
 9.6650200e+00   5.5300010e+03
 9.6696997e+00   5.5476838e+03
 9.6743803e+00   5.5919274e+03
 9.6790600e+00   5.6368533e+03
 9.6837397e+00   5.6811747e+03
 9.6884203e+00   5.7768984e+03
 9.6931000e+00   5.8042252e+03
 9.6977797e+00   5.8873847e+03
 9.7024603e+00   6.4017972e+03
 9.7071400e+00   6.5120967e+03
 9.7118196e+00   6.4709278e+03
 9.7165003e+00   7.0940336e+03
 9.7211800e+00   6.6314389e+03
 9.7258596e+00   6.5905031e+03
 9.7305403e+00   5.9970977e+03
 9.7352200e+00   6.4220293e+03
 9.7398996e+00   5.7842213e+03
 9.7445803e+00   5.7330127e+03
 9.7492599e+00   5.5055748e+03
 9.7539396e+00   5.4355220e+03
 9.7586203e+00   5.3468427e+03
 9.7632999e+00   5.2825303e+03
 9.7679796e+00   5.2681971e+03
 9.7726603e+00   5.2296788e+03
 9.7773399e+00   5.2367741e+03
 9.7820196e+00   5.2234633e+03
 9.7867002e+00   5.2338744e+03
 9.7913799e+00   5.2343814e+03
 9.7960596e+00   5.2390038e+03
 9.8007402e+00   5.2596376e+03
 9.8054199e+00   5.3104971e+03
 9.8100996e+00   5.3499978e+03
 9.8147802e+00   5.4243242e+03
 9.8194599e+00   5.5578755e+03
 9.8241396e+00   5.7057092e+03
 9.8288202e+00   5.8401780e+03
 9.8334999e+00   6.4346059e+03
 9.8381796e+00   6.9860985e+03
 9.8428602e+00   7.7661860e+03
 9.8475399e+00   8.7914091e+03
 9.8522196e+00   9.6457290e+03
 9.8569002e+00   1.0829956e+04
 9.8615799e+00   1.1394779e+04
 9.8662596e+00   1.1503094e+04
 9.8709402e+00   1.0731432e+04
 9.8756199e+00   9.8980717e+03
 9.8802996e+00   8.7222499e+03
 9.8849802e+00   7.5590408e+03
 9.8896599e+00   6.8780903e+03
 9.8943396e+00   6.4503374e+03
 9.8990202e+00   6.0592195e+03
 9.9036999e+00   5.7526425e+03
 9.9083796e+00   5.5815217e+03
 9.9130602e+00   5.4688638e+03
 9.9177399e+00   5.4109507e+03
 9.9224195e+00   5.3719224e+03
 9.9271002e+00   5.3512286e+03
 9.9317799e+00   5.3351705e+03
 9.9364595e+00   5.3283701e+03
 9.9411402e+00   5.3214383e+03
 9.9458199e+00   5.3130390e+03
 9.9504995e+00   5.3179174e+03
 9.9551802e+00   5.3194753e+03
 9.9598598e+00   5.3285019e+03
 9.9645395e+00   5.3362315e+03
 9.9692202e+00   5.3372035e+03
 9.9738998e+00   5.3389428e+03
 9.9785805e+00   5.3377387e+03
 9.9832602e+00   5.3491696e+03
 9.9879398e+00   5.3702500e+03
 9.9926205e+00   5.3633281e+03
 9.9973001e+00   5.3764897e+03
 1.0001980e+01   5.3673597e+03
 1.0006660e+01   5.3632361e+03
 1.0011340e+01   5.3564440e+03
 1.0016020e+01   5.3575321e+03
 1.0020700e+01   5.3451490e+03
 1.0025380e+01   5.3312393e+03
 1.0030060e+01   5.3208790e+03
 1.0034740e+01   5.3102530e+03
 1.0039420e+01   5.2998207e+03
 1.0044100e+01   5.2776236e+03
 1.0048780e+01   5.2838469e+03
 1.0053460e+01   5.2586879e+03
 1.0058140e+01   5.2622993e+03
 1.0062820e+01   5.2429577e+03
 1.0067500e+01   5.2580696e+03
 1.0072180e+01   5.2317072e+03
 1.0076860e+01   5.2461141e+03
 1.0081540e+01   5.2318319e+03
 1.0086220e+01   5.2371340e+03
 1.0090900e+01   5.2222276e+03
 1.0095580e+01   5.2305535e+03
 1.0100260e+01   5.2104852e+03
 1.0104940e+01   5.2183621e+03
 1.0109620e+01   5.2278936e+03
 1.0114300e+01   5.2188095e+03
 1.0118980e+01   5.2336568e+03
 1.0123660e+01   5.2323213e+03
 1.0128340e+01   5.2349539e+03
 1.0133020e+01   5.2314471e+03
 1.0137700e+01   5.2523751e+03
 1.0142380e+01   5.2544234e+03
 1.0147060e+01   5.2664834e+03
 1.0151740e+01   5.2705397e+03
 1.0156420e+01   5.2939972e+03
 1.0161100e+01   5.2997223e+03
 1.0165780e+01   5.3268564e+03
 1.0170460e+01   5.3495068e+03
 1.0175140e+01   5.3726269e+03
 1.0179820e+01   5.3987832e+03
 1.0184500e+01   5.4222426e+03
 1.0189180e+01   5.4336917e+03
 1.0193860e+01   5.4887893e+03
 1.0198540e+01   5.5091982e+03
 1.0203220e+01   5.5434118e+03
 1.0207900e+01   5.5988898e+03
 1.0212580e+01   5.6228604e+03
 1.0217260e+01   5.6699254e+03
 1.0221940e+01   5.6989827e+03
 1.0226620e+01   5.7265357e+03
 1.0231300e+01   5.7698579e+03
 1.0235980e+01   5.7954829e+03
 1.0240660e+01   5.8074916e+03
 1.0245340e+01   5.8252865e+03
 1.0250020e+01   5.8248716e+03
 1.0254700e+01   5.8602948e+03
 1.0259380e+01   5.8750957e+03
 1.0264060e+01   5.9444555e+03
 1.0268740e+01   6.0347369e+03
 1.0273420e+01   6.0774523e+03
 1.0278100e+01   5.9565875e+03
 1.0282780e+01   5.8903213e+03
 1.0287460e+01   6.0007317e+03
 1.0292140e+01   6.0939605e+03
 1.0296820e+01   6.1287546e+03
 1.0301500e+01   6.1817242e+03
 1.0306180e+01   6.1797365e+03
 1.0310860e+01   6.0496347e+03
 1.0315540e+01   5.9657903e+03
 1.0320220e+01   5.8186521e+03
 1.0324900e+01   5.9087262e+03
 1.0329580e+01   5.9981652e+03
 1.0334260e+01   5.7607471e+03
 1.0338940e+01   5.5860035e+03
 1.0343620e+01   5.5009203e+03
 1.0348300e+01   5.4181427e+03
 1.0352980e+01   5.3834795e+03
 1.0357660e+01   5.3518081e+03
 1.0362340e+01   5.3194050e+03
 1.0367020e+01   5.3464457e+03
 1.0371700e+01   5.2993760e+03
 1.0376380e+01   5.3143844e+03
 1.0381060e+01   5.3237386e+03
 1.0385740e+01   5.3125354e+03
 1.0390420e+01   5.3405283e+03
 1.0395100e+01   5.3268379e+03
 1.0399780e+01   5.3259180e+03
 1.0404460e+01   5.3789420e+03
 1.0409140e+01   5.3632882e+03
 1.0413820e+01   5.3872447e+03
 1.0418500e+01   5.4202976e+03
 1.0423180e+01   5.3913945e+03
 1.0427860e+01   5.4412301e+03
 1.0432540e+01   5.4416631e+03
 1.0437220e+01   5.4573511e+03
 1.0441900e+01   5.5232642e+03
 1.0446580e+01   5.5078839e+03
 1.0451260e+01   5.5439848e+03
 1.0455940e+01   5.5825164e+03
 1.0460620e+01   5.5966486e+03
 1.0465300e+01   5.6462293e+03
 1.0469980e+01   5.7320289e+03
 1.0474660e+01   5.7821945e+03
 1.0479340e+01   5.9186013e+03
 1.0484020e+01   5.9273631e+03
 1.0488700e+01   6.0142549e+03
 1.0493380e+01   6.2366564e+03
 1.0498060e+01   6.3322541e+03
 1.0502740e+01   6.2485895e+03
 1.0507420e+01   6.3239357e+03
 1.0512100e+01   6.2125679e+03
 1.0516780e+01   6.2271652e+03
 1.0521460e+01   6.0788697e+03
 1.0526140e+01   6.0554639e+03
 1.0530820e+01   5.7520676e+03
 1.0535500e+01   5.6716541e+03
 1.0540180e+01   5.6236598e+03
 1.0544860e+01   5.5093534e+03
 1.0549540e+01   5.4441854e+03
 1.0554220e+01   5.4458622e+03
 1.0558900e+01   5.3822444e+03
 1.0563580e+01   5.3805977e+03
 1.0568260e+01   5.3427180e+03
 1.0572940e+01   5.3108928e+03
 1.0577620e+01   5.3133859e+03
 1.0582300e+01   5.2642733e+03
 1.0586980e+01   5.2552424e+03
 1.0591660e+01   5.2453273e+03
 1.0596340e+01   5.2246056e+03
 1.0601020e+01   5.2153169e+03
 1.0605700e+01   5.2088846e+03
 1.0610380e+01   5.1754108e+03
 1.0615060e+01   5.1827569e+03
 1.0619740e+01   5.1623763e+03
 1.0624420e+01   5.1544390e+03
 1.0629100e+01   5.1628082e+03
 1.0633780e+01   5.1362385e+03
 1.0638460e+01   5.1305440e+03
 1.0643140e+01   5.1127391e+03
 1.0647820e+01   5.1083961e+03
 1.0652500e+01   5.1166258e+03
 1.0657180e+01   5.1068425e+03
 1.0661860e+01   5.0908211e+03
 1.0666540e+01   5.0998726e+03
 1.0671220e+01   5.0903542e+03
 1.0675900e+01   5.0828541e+03
 1.0680580e+01   5.0944264e+03
 1.0685260e+01   5.0775408e+03
 1.0689940e+01   5.1163463e+03
 1.0694620e+01   5.1038566e+03
 1.0699300e+01   5.1008389e+03
 1.0703980e+01   5.1050805e+03
 1.0708660e+01   5.1146642e+03
 1.0713340e+01   5.1135851e+03
 1.0718020e+01   5.1344311e+03
 1.0722700e+01   5.1387171e+03
 1.0727380e+01   5.1596384e+03
 1.0732060e+01   5.1595069e+03
 1.0736740e+01   5.1695604e+03
 1.0741420e+01   5.1787738e+03
 1.0746100e+01   5.1885936e+03
 1.0750780e+01   5.2008010e+03
 1.0755460e+01   5.1876776e+03
 1.0760140e+01   5.1868142e+03
 1.0764820e+01   5.1879107e+03
 1.0769500e+01   5.1910083e+03
 1.0774180e+01   5.1888331e+03
 1.0778860e+01   5.1942536e+03
 1.0783540e+01   5.1870191e+03
 1.0788220e+01   5.1891671e+03
 1.0792900e+01   5.1702311e+03
 1.0797580e+01   5.1686464e+03
 1.0802260e+01   5.1716916e+03
 1.0806940e+01   5.1773515e+03
 1.0811620e+01   5.1718940e+03
 1.0816300e+01   5.1596320e+03
 1.0820980e+01   5.1649629e+03
 1.0825660e+01   5.1489618e+03
 1.0830340e+01   5.1466246e+03
 1.0835020e+01   5.1400700e+03
 1.0839700e+01   5.1314828e+03
 1.0844380e+01   5.1266932e+03
 1.0849060e+01   5.1271097e+03
 1.0853740e+01   5.1102683e+03
 1.0858420e+01   5.0994990e+03
 1.0863100e+01   5.0914507e+03
 1.0867780e+01   5.0908331e+03
 1.0872460e+01   5.0635175e+03
 1.0877140e+01   5.0451099e+03
 1.0881820e+01   5.0377812e+03
 1.0886500e+01   5.0220057e+03
 1.0891180e+01   5.0061442e+03
 1.0895860e+01   4.9900160e+03
 1.0900540e+01   4.9826778e+03
 1.0905220e+01   4.9665268e+03
 1.0909900e+01   4.9642920e+03
 1.0914580e+01   4.9377358e+03
 1.0919260e+01   4.9331085e+03
 1.0923940e+01   4.9193900e+03
 1.0928620e+01   4.9163882e+03
 1.0933300e+01   4.9035732e+03
 1.0937980e+01   4.8999507e+03
 1.0942660e+01   4.8861216e+03
 1.0947340e+01   4.8771877e+03
 1.0952020e+01   4.8659222e+03
 1.0956700e+01   4.8493058e+03
 1.0961380e+01   4.8662130e+03
 1.0966060e+01   4.8448594e+03
 1.0970740e+01   4.8515726e+03
 1.0975420e+01   4.8453223e+03
 1.0980100e+01   4.8367491e+03
 1.0984780e+01   4.8232662e+03
 1.0989460e+01   4.8221331e+03
 1.0994140e+01   4.8101638e+03
 1.0998820e+01   4.8214307e+03
 1.1003500e+01   4.8079177e+03
 1.1008180e+01   4.7986067e+03
 1.1012860e+01   4.8167725e+03
 1.1017540e+01   4.7986811e+03
 1.1022220e+01   4.8138213e+03
 1.1026900e+01   4.8092797e+03
 1.1031580e+01   4.8046523e+03
 1.1036260e+01   4.8232570e+03
 1.1040940e+01   4.8253107e+03
 1.1045620e+01   4.8118454e+03
 1.1050300e+01   4.8205096e+03
 1.1054980e+01   4.8196229e+03
 1.1059660e+01   4.8368723e+03
 1.1064340e+01   4.8154646e+03
 1.1069020e+01   4.8174944e+03
 1.1073700e+01   4.8368830e+03
 1.1078380e+01   4.8302395e+03
 1.1083060e+01   4.8496026e+03
 1.1087740e+01   4.8438712e+03
 1.1092420e+01   4.8528869e+03
 1.1097100e+01   4.8632792e+03
 1.1101780e+01   4.8755706e+03
 1.1106460e+01   4.8679083e+03
 1.1111140e+01   4.8999515e+03
 1.1115820e+01   4.9003062e+03
 1.1120500e+01   4.9274966e+03
 1.1125180e+01   4.9241431e+03
 1.1129860e+01   4.9512432e+03
 1.1134540e+01   4.9559541e+03
 1.1139220e+01   4.9490843e+03
 1.1143900e+01   4.9584665e+03
 1.1148580e+01   4.9668645e+03
 1.1153260e+01   4.9780839e+03
 1.1157940e+01   4.9746878e+03
 1.1162620e+01   4.9679938e+03
 1.1167300e+01   4.9756911e+03
 1.1171980e+01   4.9893746e+03
 1.1176660e+01   4.9612057e+03
 1.1181340e+01   4.9718580e+03
 1.1186020e+01   4.9490082e+03
 1.1190700e+01   4.9585173e+03
 1.1195380e+01   4.9667386e+03
 1.1200060e+01   4.9198552e+03
 1.1204740e+01   4.9285089e+03
 1.1209420e+01   5.0032364e+03
 1.1214100e+01   4.9146355e+03
 1.1218780e+01   5.0007338e+03
 1.1223460e+01   4.9250392e+03
 1.1228140e+01   4.8820554e+03
 1.1232820e+01   4.9316670e+03
 1.1237500e+01   4.9134144e+03
 1.1242180e+01   4.8423143e+03
 1.1246860e+01   4.8275649e+03
 1.1251540e+01   4.7893820e+03
 1.1256220e+01   4.7826660e+03
 1.1260900e+01   4.7454099e+03
 1.1265580e+01   4.7245907e+03
 1.1270260e+01   4.7194696e+03
 1.1274940e+01   4.6936203e+03
 1.1279620e+01   4.6888136e+03
 1.1284300e+01   4.6816612e+03
 1.1288980e+01   4.6617221e+03
 1.1293660e+01   4.6682865e+03
 1.1298340e+01   4.6414599e+03
 1.1303020e+01   4.6448771e+03
 1.1307700e+01   4.6350665e+03
 1.1312380e+01   4.6251542e+03
 1.1317060e+01   4.6249744e+03
 1.1321740e+01   4.6164918e+03
 1.1326420e+01   4.6014200e+03
 1.1331100e+01   4.6167939e+03
 1.1335780e+01   4.5952228e+03
 1.1340460e+01   4.5897421e+03
 1.1345140e+01   4.5923017e+03
 1.1349820e+01   4.5737420e+03
 1.1354500e+01   4.5770571e+03
 1.1359180e+01   4.5697719e+03
 1.1363860e+01   4.5761751e+03
 1.1368540e+01   4.5674305e+03
 1.1373220e+01   4.5565088e+03
 1.1377900e+01   4.5593779e+03
 1.1382580e+01   4.5587398e+03
 1.1387260e+01   4.5534026e+03
 1.1391940e+01   4.5495571e+03
 1.1396620e+01   4.5354404e+03
 1.1401300e+01   4.5396038e+03
 1.1405980e+01   4.5350185e+03
 1.1410660e+01   4.5260160e+03
 1.1415340e+01   4.5331944e+03
 1.1420020e+01   4.5173317e+03
 1.1424700e+01   4.5192297e+03
 1.1429380e+01   4.5218132e+03
 1.1434060e+01   4.5081515e+03
 1.1438740e+01   4.5119861e+03
 1.1443420e+01   4.5090474e+03
 1.1448100e+01   4.5092887e+03
 1.1452780e+01   4.5082346e+03
 1.1457460e+01   4.4957313e+03
 1.1462140e+01   4.4971211e+03
 1.1466820e+01   4.5079605e+03
 1.1471500e+01   4.4786737e+03
 1.1476180e+01   4.4917598e+03
 1.1480860e+01   4.4833573e+03
 1.1485540e+01   4.4906959e+03
 1.1490220e+01   4.4862383e+03
 1.1494900e+01   4.4852002e+03
 1.1499580e+01   4.4749572e+03
 1.1504260e+01   4.4811636e+03
 1.1508940e+01   4.4701081e+03
 1.1513620e+01   4.4739545e+03
 1.1518300e+01   4.4712704e+03
 1.1522980e+01   4.4681357e+03
 1.1527660e+01   4.4677003e+03
 1.1532340e+01   4.4578911e+03
 1.1537020e+01   4.4728657e+03
 1.1541700e+01   4.4645206e+03
 1.1546380e+01   4.4576001e+03
 1.1551060e+01   4.4512478e+03
 1.1555740e+01   4.4555906e+03
 1.1560420e+01   4.4450719e+03
 1.1565100e+01   4.4461366e+03
 1.1569780e+01   4.4325722e+03
 1.1574460e+01   4.4449995e+03
 1.1579140e+01   4.4348984e+03
 1.1583820e+01   4.4371810e+03
 1.1588500e+01   4.4352131e+03
 1.1593180e+01   4.4286970e+03
 1.1597860e+01   4.4303449e+03
 1.1602540e+01   4.4283398e+03
 1.1607220e+01   4.4353416e+03
 1.1611900e+01   4.4354691e+03
 1.1616580e+01   4.4349039e+03
 1.1621260e+01   4.4350844e+03
 1.1625940e+01   4.4291667e+03
 1.1630620e+01   4.4282734e+03
 1.1635300e+01   4.4203114e+03
 1.1639980e+01   4.4229226e+03
 1.1644660e+01   4.4136699e+03
 1.1649340e+01   4.4158018e+03
 1.1654020e+01   4.4050375e+03
 1.1658700e+01   4.4109952e+03
 1.1663380e+01   4.4054093e+03
 1.1668060e+01   4.3958489e+03
 1.1672740e+01   4.4014828e+03
 1.1677420e+01   4.4016974e+03
 1.1682100e+01   4.3936609e+03
 1.1686780e+01   4.3901662e+03
 1.1691460e+01   4.3704665e+03
 1.1696140e+01   4.3902085e+03
 1.1700820e+01   4.3874488e+03
 1.1705500e+01   4.3808151e+03
 1.1710180e+01   4.3733162e+03
 1.1714860e+01   4.3793772e+03
 1.1719540e+01   4.3741162e+03
 1.1724220e+01   4.3753777e+03
 1.1728900e+01   4.3689272e+03
 1.1733580e+01   4.3662030e+03
 1.1738260e+01   4.3619718e+03
 1.1742940e+01   4.3749917e+03
 1.1747620e+01   4.3647417e+03
 1.1752300e+01   4.3663609e+03
 1.1756980e+01   4.3669630e+03
 1.1761660e+01   4.3670018e+03
 1.1766340e+01   4.3747805e+03
 1.1771020e+01   4.3716297e+03
 1.1775700e+01   4.3763521e+03
 1.1780380e+01   4.3778900e+03
 1.1785060e+01   4.3713505e+03
 1.1789740e+01   4.3792872e+03
 1.1794420e+01   4.3885584e+03
 1.1799100e+01   4.3762592e+03
 1.1803780e+01   4.3800298e+03
 1.1808460e+01   4.3824531e+03
 1.1813140e+01   4.3807812e+03
 1.1817820e+01   4.3915186e+03
 1.1822500e+01   4.3976869e+03
 1.1827180e+01   4.3959853e+03
 1.1831860e+01   4.4079904e+03
 1.1836540e+01   4.4040165e+03
 1.1841220e+01   4.4134838e+03
 1.1845900e+01   4.4291767e+03
 1.1850580e+01   4.4265558e+03
 1.1855260e+01   4.4586079e+03
 1.1859940e+01   4.4669082e+03
 1.1864620e+01   4.4924357e+03
 1.1869300e+01   4.5182032e+03
 1.1873980e+01   4.5541308e+03
 1.1878660e+01   4.5837409e+03
 1.1883340e+01   4.6011464e+03
 1.1888020e+01   4.6515398e+03
 1.1892700e+01   4.7068700e+03
 1.1897380e+01   4.7762543e+03
 1.1902060e+01   4.8072036e+03
 1.1906740e+01   4.8336916e+03
 1.1911420e+01   4.8351178e+03
 1.1916100e+01   4.8136067e+03
 1.1920780e+01   4.7817156e+03
 1.1925460e+01   4.7947071e+03
 1.1930140e+01   4.7461110e+03
 1.1934820e+01   4.7412136e+03
 1.1939500e+01   4.7309917e+03
 1.1944180e+01   4.7010560e+03
 1.1948860e+01   4.6895474e+03
 1.1953540e+01   4.6846354e+03
 1.1958220e+01   4.6916162e+03
 1.1962900e+01   4.6698175e+03
 1.1967580e+01   4.6854985e+03
 1.1972260e+01   4.6792139e+03
 1.1976940e+01   4.6927715e+03
 1.1981620e+01   4.6835793e+03
 1.1986300e+01   4.6711108e+03
 1.1990980e+01   4.6680156e+03
 1.1995660e+01   4.6553487e+03
 1.2000340e+01   4.6475776e+03
 1.2005020e+01   4.6366146e+03
 1.2009700e+01   4.6239228e+03
 1.2014380e+01   4.6098061e+03
 1.2019060e+01   4.6066065e+03
 1.2023740e+01   4.5829099e+03
 1.2028420e+01   4.5757492e+03
 1.2033100e+01   4.5487131e+03
 1.2037780e+01   4.5343763e+03
 1.2042460e+01   4.5148561e+03
 1.2047140e+01   4.4928889e+03
 1.2051820e+01   4.4900327e+03
 1.2056500e+01   4.4609413e+03
 1.2061180e+01   4.4563306e+03
 1.2065860e+01   4.4343886e+03
 1.2070540e+01   4.4271315e+03
 1.2075220e+01   4.4142219e+03
 1.2079900e+01   4.4031677e+03
 1.2084580e+01   4.3924353e+03
 1.2089260e+01   4.3823405e+03
 1.2093940e+01   4.3679419e+03
 1.2098620e+01   4.3575833e+03
 1.2103300e+01   4.3418394e+03
 1.2107980e+01   4.3415583e+03
 1.2112660e+01   4.3285037e+03
 1.2117340e+01   4.3113864e+03
 1.2122020e+01   4.3080756e+03
 1.2126700e+01   4.2925361e+03
 1.2131380e+01   4.2877236e+03
 1.2136060e+01   4.2664489e+03
 1.2140740e+01   4.2670946e+03
 1.2145420e+01   4.2471757e+03
 1.2150100e+01   4.2443903e+03
 1.2154780e+01   4.2287467e+03
 1.2159460e+01   4.2302800e+03
 1.2164140e+01   4.2159075e+03
 1.2168820e+01   4.2052001e+03
 1.2173500e+01   4.2114750e+03
 1.2178180e+01   4.1871952e+03
 1.2182860e+01   4.1819480e+03
 1.2187540e+01   4.1848464e+03
 1.2192220e+01   4.1678853e+03
 1.2196900e+01   4.1722073e+03
 1.2201580e+01   4.1670387e+03
 1.2206260e+01   4.1569386e+03
 1.2210940e+01   4.1651742e+03
 1.2215620e+01   4.1456546e+03
 1.2220300e+01   4.1551738e+03
 1.2224980e+01   4.1508154e+03
 1.2229660e+01   4.1326249e+03
 1.2234340e+01   4.1318476e+03
 1.2239020e+01   4.1381385e+03
 1.2243700e+01   4.1299838e+03
 1.2248380e+01   4.1191789e+03
 1.2253060e+01   4.1257593e+03
 1.2257740e+01   4.1227060e+03
 1.2262420e+01   4.1299104e+03
 1.2267100e+01   4.1148323e+03
 1.2271780e+01   4.1174440e+03
 1.2276460e+01   4.1250889e+03
 1.2281140e+01   4.1155319e+03
 1.2285820e+01   4.1102533e+03
 1.2290500e+01   4.1024323e+03
 1.2295180e+01   4.1122780e+03
 1.2299860e+01   4.0990238e+03
 1.2304540e+01   4.1122822e+03
 1.2309220e+01   4.1118826e+03
 1.2313900e+01   4.1078084e+03
 1.2318580e+01   4.1048891e+03
 1.2323260e+01   4.1053691e+03
 1.2327940e+01   4.1068206e+03
 1.2332620e+01   4.1132105e+03
 1.2337300e+01   4.1276490e+03
 1.2341980e+01   4.1152791e+03
 1.2346660e+01   4.1240816e+03
 1.2351340e+01   4.1248722e+03
 1.2356020e+01   4.1368287e+03
 1.2360700e+01   4.1321226e+03
 1.2365380e+01   4.1343682e+03
 1.2370060e+01   4.1472962e+03
 1.2374740e+01   4.1465123e+03
 1.2379420e+01   4.1583756e+03
 1.2384100e+01   4.1509716e+03
 1.2388780e+01   4.1624234e+03
 1.2393460e+01   4.1627234e+03
 1.2398140e+01   4.1641897e+03
 1.2402820e+01   4.1631688e+03
 1.2407500e+01   4.1674297e+03
 1.2412180e+01   4.1619933e+03
 1.2416860e+01   4.1704484e+03
 1.2421540e+01   4.1719277e+03
 1.2426220e+01   4.1732109e+03
 1.2430900e+01   4.1698399e+03
 1.2435580e+01   4.1736563e+03
 1.2440260e+01   4.1662469e+03
 1.2444940e+01   4.1774688e+03
 1.2449620e+01   4.1732506e+03
 1.2454300e+01   4.1566996e+03
 1.2458980e+01   4.1675959e+03
 1.2463660e+01   4.1525780e+03
 1.2468340e+01   4.1533869e+03
 1.2473020e+01   4.1436870e+03
 1.2477700e+01   4.1540595e+03
 1.2482380e+01   4.1357596e+03
 1.2487060e+01   4.1390472e+03
 1.2491740e+01   4.1258717e+03
 1.2496420e+01   4.1186584e+03
 1.2501100e+01   4.1132241e+03
 1.2505780e+01   4.1220198e+03
 1.2510460e+01   4.1150425e+03
 1.2515140e+01   4.1086102e+03
 1.2519820e+01   4.1026912e+03
 1.2524500e+01   4.0984243e+03
 1.2529180e+01   4.0918691e+03
 1.2533860e+01   4.0945785e+03
 1.2538540e+01   4.0910361e+03
 1.2543220e+01   4.0993606e+03
 1.2547900e+01   4.1122680e+03
 1.2552580e+01   4.1052453e+03
 1.2557260e+01   4.1203323e+03
 1.2561940e+01   4.1473256e+03
 1.2566620e+01   4.1022665e+03
 1.2571300e+01   4.1809306e+03
 1.2575980e+01   4.0992651e+03
 1.2580660e+01   4.0733277e+03
 1.2585340e+01   4.1142189e+03
 1.2590020e+01   4.0799125e+03
 1.2594700e+01   4.0791348e+03
 1.2599380e+01   4.0934009e+03
 1.2604060e+01   4.0860279e+03
 1.2608740e+01   4.0795325e+03
 1.2613420e+01   4.0923244e+03
 1.2618100e+01   4.0898231e+03
 1.2622780e+01   4.1005062e+03
 1.2627460e+01   4.0945188e+03
 1.2632140e+01   4.1073863e+03
 1.2636820e+01   4.1162012e+03
 1.2641500e+01   4.1215829e+03
 1.2646180e+01   4.1273978e+03
 1.2650860e+01   4.1298706e+03
 1.2655540e+01   4.1475185e+03
 1.2660220e+01   4.1663970e+03
 1.2664900e+01   4.1703884e+03
 1.2669580e+01   4.1793779e+03
 1.2674260e+01   4.1859628e+03
 1.2678940e+01   4.1935235e+03
 1.2683620e+01   4.2084213e+03
 1.2688300e+01   4.2159665e+03
 1.2692980e+01   4.2292455e+03
 1.2697660e+01   4.2403115e+03
