MA2b-00001.tif Azm= 0.00
2-Theta Angle (Degrees)
Intensity
       2500
 1.0023400e+00   7.8379739e+03
 1.0070200e+00   7.8435741e+03
 1.0117000e+00   7.7937918e+03
 1.0163800e+00   7.7908275e+03
 1.0210600e+00   7.7157402e+03
 1.0257400e+00   7.7448015e+03
 1.0304199e+00   7.6790025e+03
 1.0351000e+00   7.6590224e+03
 1.0397800e+00   7.6368873e+03
 1.0444601e+00   7.5974410e+03
 1.0491400e+00   7.5907209e+03
 1.0538200e+00   7.5826109e+03
 1.0585001e+00   7.5234635e+03
 1.0631800e+00   7.4839262e+03
 1.0678600e+00   7.5154770e+03
 1.0725400e+00   7.4884358e+03
 1.0772200e+00   7.4365292e+03
 1.0819000e+00   7.4320662e+03
 1.0865800e+00   7.4269434e+03
 1.0912600e+00   7.4119748e+03
 1.0959400e+00   7.4079317e+03
 1.1006200e+00   7.3680781e+03
 1.1052999e+00   7.3393530e+03
 1.1099800e+00   7.3271684e+03
 1.1146600e+00   7.3243406e+03
 1.1193399e+00   7.2938565e+03
 1.1240200e+00   7.2755724e+03
 1.1287000e+00   7.2572427e+03
 1.1333801e+00   7.2536631e+03
 1.1380600e+00   7.2361384e+03
 1.1427400e+00   7.2624710e+03
 1.1474200e+00   7.2178261e+03
 1.1521000e+00   7.2068945e+03
 1.1567800e+00   7.1939456e+03
 1.1614600e+00   7.1588149e+03
 1.1661400e+00   7.1651201e+03
 1.1708200e+00   7.1490453e+03
 1.1755000e+00   7.1363074e+03
 1.1801800e+00   7.1385845e+03
 1.1848600e+00   7.1501706e+03
 1.1895400e+00   7.1453561e+03
 1.1942199e+00   7.1070665e+03
 1.1989000e+00   7.0984254e+03
 1.2035800e+00   7.0984250e+03
 1.2082601e+00   7.0855105e+03
 1.2129400e+00   7.0793421e+03
 1.2176200e+00   7.0667935e+03
 1.2223001e+00   7.1079860e+03
 1.2269800e+00   7.0508507e+03
 1.2316600e+00   7.0515606e+03
 1.2363400e+00   7.0472902e+03
 1.2410200e+00   7.0549333e+03
 1.2457000e+00   7.0774710e+03
 1.2503800e+00   7.0335319e+03
 1.2550600e+00   7.0503745e+03
 1.2597400e+00   7.0404291e+03
 1.2644200e+00   7.0526002e+03
 1.2691000e+00   7.0387455e+03
 1.2737800e+00   7.0708961e+03
 1.2784600e+00   7.0701296e+03
 1.2831399e+00   7.0343086e+03
 1.2878200e+00   7.0543541e+03
 1.2925000e+00   7.0416346e+03
 1.2971801e+00   7.0608763e+03
 1.3018600e+00   7.0650593e+03
 1.3065400e+00   7.0646150e+03
 1.3112200e+00   7.0546403e+03
 1.3159000e+00   7.0438900e+03
 1.3205800e+00   7.0195945e+03
 1.3252600e+00   7.0612068e+03
 1.3299400e+00   7.0553599e+03
 1.3346200e+00   7.0704362e+03
 1.3393000e+00   7.0816180e+03
 1.3439800e+00   7.0831279e+03
 1.3486600e+00   7.0706831e+03
 1.3533400e+00   7.0851259e+03
 1.3580199e+00   7.1014726e+03
 1.3627000e+00   7.1204218e+03
 1.3673800e+00   7.1140689e+03
 1.3720599e+00   7.1068459e+03
 1.3767400e+00   7.1258101e+03
 1.3814200e+00   7.1347707e+03
 1.3861001e+00   7.1539675e+03
 1.3907800e+00   7.1525655e+03
 1.3954600e+00   7.1962850e+03
 1.4001400e+00   7.1736411e+03
 1.4048200e+00   7.2103450e+03
 1.4095000e+00   7.2116705e+03
 1.4141800e+00   7.2364969e+03
 1.4188600e+00   7.2540012e+03
 1.4235400e+00   7.2896215e+03
 1.4282200e+00   7.3198797e+03
 1.4329000e+00   7.3560123e+03
 1.4375800e+00   7.3377813e+03
 1.4422600e+00   7.3449927e+03
 1.4469399e+00   7.3729972e+03
 1.4516200e+00   7.3895732e+03
 1.4563000e+00   7.4205589e+03
 1.4609801e+00   7.4753797e+03
 1.4656600e+00   7.4933893e+03
 1.4703400e+00   7.5079585e+03
 1.4750201e+00   7.5241649e+03
 1.4797000e+00   7.5613847e+03
 1.4843800e+00   7.5709842e+03
 1.4890600e+00   7.6185086e+03
 1.4937400e+00   7.6351187e+03
 1.4984200e+00   7.6346971e+03
 1.5031000e+00   7.6633431e+03
 1.5077800e+00   7.6497863e+03
 1.5124600e+00   7.6857798e+03
 1.5171400e+00   7.7224848e+03
 1.5218199e+00   7.6918960e+03
 1.5265000e+00   7.6617252e+03
 1.5311800e+00   7.7088015e+03
 1.5358599e+00   7.6902290e+03
 1.5405400e+00   7.6909189e+03
 1.5452200e+00   7.6679464e+03
 1.5499001e+00   7.7103858e+03
 1.5545800e+00   7.6496696e+03
 1.5592600e+00   7.6598925e+03
 1.5639400e+00   7.6905862e+03
 1.5686200e+00   7.6576395e+03
 1.5733000e+00   7.6599834e+03
 1.5779800e+00   7.6737508e+03
 1.5826600e+00   7.6282663e+03
 1.5873400e+00   7.6402732e+03
 1.5920200e+00   7.6398851e+03
 1.5967000e+00   7.6481875e+03
 1.6013800e+00   7.6445700e+03
 1.6060600e+00   7.6260345e+03
 1.6107399e+00   7.6186481e+03
 1.6154200e+00   7.6657343e+03
 1.6201000e+00   7.6142983e+03
 1.6247801e+00   7.6215877e+03
 1.6294600e+00   7.6310168e+03
 1.6341400e+00   7.6174691e+03
 1.6388201e+00   7.6308212e+03
 1.6435000e+00   7.6305394e+03
 1.6481800e+00   7.6126487e+03
 1.6528600e+00   7.6472394e+03
 1.6575400e+00   7.6542445e+03
 1.6622200e+00   7.6218143e+03
 1.6669000e+00   7.6554744e+03
 1.6715800e+00   7.6519345e+03
 1.6762600e+00   7.6332664e+03
 1.6809400e+00   7.6524816e+03
 1.6856200e+00   7.6494622e+03
 1.6903000e+00   7.6504736e+03
 1.6949800e+00   7.6662534e+03
 1.6996599e+00   7.6416583e+03
 1.7043400e+00   7.6578171e+03
 1.7090200e+00   7.6444607e+03
 1.7137001e+00   7.6516514e+03
 1.7183800e+00   7.6502670e+03
 1.7230600e+00   7.6691474e+03
 1.7277400e+00   7.6658045e+03
 1.7324200e+00   7.6936418e+03
 1.7371000e+00   7.6676957e+03
 1.7417800e+00   7.6970171e+03
 1.7464600e+00   7.6734866e+03
 1.7511400e+00   7.7027106e+03
 1.7558200e+00   7.6999038e+03
 1.7605000e+00   7.7096911e+03
 1.7651800e+00   7.7281501e+03
 1.7698600e+00   7.7183922e+03
 1.7745399e+00   7.7147921e+03
 1.7792200e+00   7.7476191e+03
 1.7839000e+00   7.7607514e+03
 1.7885799e+00   7.7526516e+03
 1.7932600e+00   7.7902468e+03
 1.7979400e+00   7.7816042e+03
 1.8026201e+00   7.8155928e+03
 1.8073000e+00   7.8170969e+03
 1.8119800e+00   7.8411390e+03
 1.8166600e+00   7.8391514e+03
 1.8213400e+00   7.8620541e+03
 1.8260200e+00   7.8703475e+03
 1.8307000e+00   7.8814298e+03
 1.8353800e+00   7.9271149e+03
 1.8400600e+00   7.9196235e+03
 1.8447400e+00   7.9234342e+03
 1.8494200e+00   7.9655530e+03
 1.8541000e+00   7.9664047e+03
 1.8587800e+00   7.9804659e+03
 1.8634599e+00   8.0110131e+03
 1.8681400e+00   8.0030130e+03
 1.8728200e+00   8.0653464e+03
 1.8775001e+00   8.0468693e+03
 1.8821800e+00   8.1143751e+03
 1.8868600e+00   8.1226844e+03
 1.8915401e+00   8.1466527e+03
 1.8962200e+00   8.1615419e+03
 1.9009000e+00   8.1746792e+03
 1.9055800e+00   8.1930747e+03
 1.9102600e+00   8.2645956e+03
 1.9149400e+00   8.2465217e+03
 1.9196200e+00   8.2521554e+03
 1.9243000e+00   8.3173930e+03
 1.9289800e+00   8.3045017e+03
 1.9336600e+00   8.3288271e+03
 1.9383399e+00   8.3913662e+03
 1.9430200e+00   8.3872745e+03
 1.9477000e+00   8.4123026e+03
 1.9523799e+00   8.4565044e+03
 1.9570600e+00   8.4597522e+03
 1.9617400e+00   8.4995319e+03
 1.9664201e+00   8.5127828e+03
 1.9711000e+00   8.5403175e+03
 1.9757800e+00   8.5754110e+03
 1.9804600e+00   8.5825793e+03
 1.9851400e+00   8.6089184e+03
 1.9898200e+00   8.6312696e+03
 1.9945000e+00   8.6517367e+03
 1.9991800e+00   8.6905268e+03
 2.0038600e+00   8.7027907e+03
 2.0085399e+00   8.7442435e+03
 2.0132201e+00   8.7531639e+03
 2.0179000e+00   8.7652777e+03
 2.0225799e+00   8.7954169e+03
 2.0272601e+00   8.8204500e+03
 2.0319400e+00   8.8602660e+03
 2.0366199e+00   8.8604268e+03
 2.0413001e+00   8.9141491e+03
 2.0459800e+00   8.9474984e+03
 2.0506599e+00   8.9634819e+03
 2.0553401e+00   8.9675517e+03
 2.0600200e+00   9.0202173e+03
 2.0646999e+00   9.0415614e+03
 2.0693800e+00   9.0992966e+03
 2.0740600e+00   9.1223113e+03
 2.0787399e+00   9.1744565e+03
 2.0834200e+00   9.2537046e+03
 2.0881000e+00   9.2935173e+03
 2.0927801e+00   9.3885840e+03
 2.0974600e+00   9.4816939e+03
 2.1021399e+00   9.5903994e+03
 2.1068201e+00   9.7409413e+03
 2.1115000e+00   9.9201779e+03
 2.1161799e+00   1.0163702e+04
 2.1208601e+00   1.0486505e+04
 2.1255400e+00   1.0927280e+04
 2.1302199e+00   1.1571595e+04
 2.1349001e+00   1.2488634e+04
 2.1395800e+00   1.3586260e+04
 2.1442599e+00   1.4894036e+04
 2.1489401e+00   1.6468130e+04
 2.1536200e+00   1.8017130e+04
 2.1582999e+00   1.9535047e+04
 2.1629801e+00   2.1026475e+04
 2.1676600e+00   2.2386969e+04
 2.1723399e+00   2.3355563e+04
 2.1770201e+00   2.3916831e+04
 2.1817000e+00   2.4087493e+04
 2.1863799e+00   2.3739122e+04
 2.1910601e+00   2.3020153e+04
 2.1957400e+00   2.2065211e+04
 2.2004199e+00   2.0877743e+04
 2.2051001e+00   1.9713027e+04
 2.2097800e+00   1.8623137e+04
 2.2144599e+00   1.7668960e+04
 2.2191401e+00   1.6858677e+04
 2.2238200e+00   1.6218727e+04
 2.2284999e+00   1.5686737e+04
 2.2331800e+00   1.5246420e+04
 2.2378600e+00   1.4769687e+04
 2.2425399e+00   1.4377917e+04
 2.2472200e+00   1.3865002e+04
 2.2519000e+00   1.3313572e+04
 2.2565801e+00   1.2748268e+04
 2.2612600e+00   1.2212905e+04
 2.2659400e+00   1.1693117e+04
 2.2706201e+00   1.1314549e+04
 2.2753000e+00   1.1028050e+04
 2.2799799e+00   1.0803505e+04
 2.2846601e+00   1.0679115e+04
 2.2893400e+00   1.0538053e+04
 2.2940199e+00   1.0502322e+04
 2.2987001e+00   1.0465921e+04
 2.3033800e+00   1.0477060e+04
 2.3080599e+00   1.0436019e+04
 2.3127401e+00   1.0452990e+04
 2.3174200e+00   1.0465665e+04
 2.3220999e+00   1.0458437e+04
 2.3267801e+00   1.0472991e+04
 2.3314600e+00   1.0484192e+04
 2.3361399e+00   1.0517857e+04
 2.3408201e+00   1.0557475e+04
 2.3455000e+00   1.0569227e+04
 2.3501799e+00   1.0591498e+04
 2.3548601e+00   1.0611883e+04
 2.3595400e+00   1.0623226e+04
 2.3642199e+00   1.0680550e+04
 2.3689001e+00   1.0696953e+04
 2.3735800e+00   1.0734954e+04
 2.3782599e+00   1.0745885e+04
 2.3829401e+00   1.0795595e+04
 2.3876200e+00   1.0814041e+04
 2.3922999e+00   1.0846982e+04
 2.3969800e+00   1.0897972e+04
 2.4016600e+00   1.0924506e+04
 2.4063399e+00   1.0969673e+04
 2.4110200e+00   1.0986586e+04
 2.4157000e+00   1.1035735e+04
 2.4203801e+00   1.1064252e+04
 2.4250600e+00   1.1127220e+04
 2.4297400e+00   1.1145841e+04
 2.4344201e+00   1.1176376e+04
 2.4391000e+00   1.1217286e+04
 2.4437799e+00   1.1244442e+04
 2.4484601e+00   1.1281284e+04
 2.4531400e+00   1.1341579e+04
 2.4578199e+00   1.1365290e+04
 2.4625001e+00   1.1408420e+04
 2.4671800e+00   1.1442965e+04
 2.4718599e+00   1.1463968e+04
 2.4765401e+00   1.1487635e+04
 2.4812200e+00   1.1519327e+04
 2.4858999e+00   1.1574157e+04
 2.4905801e+00   1.1613000e+04
 2.4952600e+00   1.1647358e+04
 2.4999399e+00   1.1673069e+04
 2.5046201e+00   1.1705080e+04
 2.5093000e+00   1.1769109e+04
 2.5139799e+00   1.1786397e+04
 2.5186601e+00   1.1842300e+04
 2.5233400e+00   1.1865641e+04
 2.5280199e+00   1.1906173e+04
 2.5327001e+00   1.1921963e+04
 2.5373800e+00   1.1979119e+04
 2.5420599e+00   1.1996188e+04
 2.5467401e+00   1.2038379e+04
 2.5514200e+00   1.2057568e+04
 2.5560999e+00   1.2092507e+04
 2.5607800e+00   1.2128762e+04
 2.5654600e+00   1.2137168e+04
 2.5701399e+00   1.2180527e+04
 2.5748200e+00   1.2205519e+04
 2.5795000e+00   1.2254952e+04
 2.5841801e+00   1.2264765e+04
 2.5888600e+00   1.2284893e+04
 2.5935400e+00   1.2324926e+04
 2.5982201e+00   1.2375874e+04
 2.6029000e+00   1.2389514e+04
 2.6075799e+00   1.2425102e+04
 2.6122601e+00   1.2450478e+04
 2.6169400e+00   1.2450616e+04
 2.6216199e+00   1.2482400e+04
 2.6263001e+00   1.2514431e+04
 2.6309800e+00   1.2520587e+04
 2.6356599e+00   1.2544617e+04
 2.6403401e+00   1.2572227e+04
 2.6450200e+00   1.2555144e+04
 2.6496999e+00   1.2601848e+04
 2.6543801e+00   1.2608293e+04
 2.6590600e+00   1.2618054e+04
 2.6637399e+00   1.2649262e+04
 2.6684201e+00   1.2670227e+04
 2.6731000e+00   1.2684913e+04
 2.6777799e+00   1.2685655e+04
 2.6824601e+00   1.2684552e+04
 2.6871400e+00   1.2692325e+04
 2.6918199e+00   1.2710365e+04
 2.6965001e+00   1.2714303e+04
 2.7011800e+00   1.2738080e+04
 2.7058599e+00   1.2732715e+04
 2.7105401e+00   1.2743978e+04
 2.7152200e+00   1.2756437e+04
 2.7198999e+00   1.2747821e+04
 2.7245800e+00   1.2765304e+04
 2.7292600e+00   1.2770705e+04
 2.7339399e+00   1.2758121e+04
 2.7386200e+00   1.2765868e+04
 2.7433000e+00   1.2753928e+04
 2.7479801e+00   1.2751347e+04
 2.7526600e+00   1.2752665e+04
 2.7573400e+00   1.2734148e+04
 2.7620201e+00   1.2752393e+04
 2.7667000e+00   1.2721932e+04
 2.7713799e+00   1.2700789e+04
 2.7760601e+00   1.2707602e+04
 2.7807400e+00   1.2703487e+04
 2.7854199e+00   1.2691325e+04
 2.7901001e+00   1.2707209e+04
 2.7947800e+00   1.2672670e+04
 2.7994599e+00   1.2672417e+04
 2.8041401e+00   1.2664943e+04
 2.8088200e+00   1.2631187e+04
 2.8134999e+00   1.2618573e+04
 2.8181801e+00   1.2601134e+04
 2.8228600e+00   1.2619192e+04
 2.8275399e+00   1.2610765e+04
 2.8322201e+00   1.2584664e+04
 2.8369000e+00   1.2551795e+04
 2.8415799e+00   1.2564189e+04
 2.8462601e+00   1.2519562e+04
 2.8509400e+00   1.2520160e+04
 2.8556199e+00   1.2496158e+04
 2.8603001e+00   1.2484257e+04
 2.8649800e+00   1.2471958e+04
 2.8696599e+00   1.2456099e+04
 2.8743401e+00   1.2429624e+04
 2.8790200e+00   1.2413315e+04
 2.8836999e+00   1.2380528e+04
 2.8883801e+00   1.2384632e+04
 2.8930600e+00   1.2363759e+04
 2.8977399e+00   1.2352812e+04
 2.9024200e+00   1.2327999e+04
 2.9071000e+00   1.2326454e+04
 2.9117801e+00   1.2272926e+04
 2.9164600e+00   1.2280682e+04
 2.9211400e+00   1.2262277e+04
 2.9258201e+00   1.2223229e+04
 2.9305000e+00   1.2212095e+04
 2.9351799e+00   1.2196979e+04
 2.9398601e+00   1.2168978e+04
 2.9445400e+00   1.2167324e+04
 2.9492199e+00   1.2112967e+04
 2.9539001e+00   1.2139239e+04
 2.9585800e+00   1.2094169e+04
 2.9632599e+00   1.2086525e+04
 2.9679401e+00   1.2050016e+04
 2.9726200e+00   1.2038532e+04
 2.9772999e+00   1.2002181e+04
 2.9819801e+00   1.1993583e+04
 2.9866600e+00   1.1946298e+04
 2.9913399e+00   1.1950430e+04
 2.9960201e+00   1.1911412e+04
 3.0007000e+00   1.1864383e+04
 3.0053799e+00   1.1852293e+04
 3.0100601e+00   1.1830117e+04
 3.0147400e+00   1.1791711e+04
 3.0194199e+00   1.1780284e+04
 3.0241001e+00   1.1751723e+04
 3.0287800e+00   1.1745769e+04
 3.0334599e+00   1.1716597e+04
 3.0381401e+00   1.1661937e+04
 3.0428200e+00   1.1659512e+04
 3.0474999e+00   1.1610643e+04
 3.0521801e+00   1.1586763e+04
 3.0568600e+00   1.1548667e+04
 3.0615399e+00   1.1537402e+04
 3.0662200e+00   1.1486938e+04
 3.0709000e+00   1.1478024e+04
 3.0755799e+00   1.1444523e+04
 3.0802600e+00   1.1435988e+04
 3.0849400e+00   1.1401855e+04
 3.0896201e+00   1.1367871e+04
 3.0943000e+00   1.1340082e+04
 3.0989799e+00   1.1349234e+04
 3.1036601e+00   1.1281356e+04
 3.1083400e+00   1.1288265e+04
 3.1130199e+00   1.1265132e+04
 3.1177001e+00   1.1251066e+04
 3.1223800e+00   1.1245081e+04
 3.1270599e+00   1.1190547e+04
 3.1317401e+00   1.1178769e+04
 3.1364200e+00   1.1155600e+04
 3.1410999e+00   1.1150721e+04
 3.1457801e+00   1.1111109e+04
 3.1504600e+00   1.1089406e+04
 3.1551399e+00   1.1095461e+04
 3.1598201e+00   1.1067883e+04
 3.1645000e+00   1.1026498e+04
 3.1691799e+00   1.1029134e+04
 3.1738601e+00   1.1007048e+04
 3.1785400e+00   1.0986493e+04
 3.1832199e+00   1.0986459e+04
 3.1879001e+00   1.0987828e+04
 3.1925800e+00   1.0950996e+04
 3.1972599e+00   1.0969526e+04
 3.2019401e+00   1.0918143e+04
 3.2066200e+00   1.0928419e+04
 3.2112999e+00   1.0901720e+04
 3.2159801e+00   1.0891810e+04
 3.2206600e+00   1.0878071e+04
 3.2253399e+00   1.0845703e+04
 3.2300200e+00   1.0823843e+04
 3.2347000e+00   1.0849553e+04
 3.2393799e+00   1.0810006e+04
 3.2440600e+00   1.0793202e+04
 3.2487400e+00   1.0784209e+04
 3.2534201e+00   1.0756972e+04
 3.2581000e+00   1.0751711e+04
 3.2627800e+00   1.0748909e+04
 3.2674601e+00   1.0730539e+04
 3.2721400e+00   1.0738391e+04
 3.2768199e+00   1.0730355e+04
 3.2815001e+00   1.0706630e+04
 3.2861800e+00   1.0714076e+04
 3.2908599e+00   1.0702124e+04
 3.2955401e+00   1.0681056e+04
 3.3002200e+00   1.0690124e+04
 3.3048999e+00   1.0674014e+04
 3.3095801e+00   1.0678123e+04
 3.3142600e+00   1.0690865e+04
 3.3189399e+00   1.0656526e+04
 3.3236201e+00   1.0677685e+04
 3.3283000e+00   1.0671460e+04
 3.3329799e+00   1.0648986e+04
 3.3376601e+00   1.0649663e+04
 3.3423400e+00   1.0650669e+04
 3.3470199e+00   1.0631162e+04
 3.3517001e+00   1.0647586e+04
 3.3563800e+00   1.0611494e+04
 3.3610599e+00   1.0634755e+04
 3.3657401e+00   1.0621978e+04
 3.3704200e+00   1.0607472e+04
 3.3750999e+00   1.0623010e+04
 3.3797801e+00   1.0624137e+04
 3.3844600e+00   1.0603601e+04
 3.3891399e+00   1.0605697e+04
 3.3938200e+00   1.0611287e+04
 3.3985000e+00   1.0606619e+04
 3.4031799e+00   1.0629673e+04
 3.4078600e+00   1.0575922e+04
 3.4125400e+00   1.0620584e+04
 3.4172201e+00   1.0623707e+04
 3.4219000e+00   1.0602124e+04
 3.4265800e+00   1.0629003e+04
 3.4312601e+00   1.0610469e+04
 3.4359400e+00   1.0635683e+04
 3.4406199e+00   1.0656043e+04
 3.4453001e+00   1.0624428e+04
 3.4499800e+00   1.0650297e+04
 3.4546599e+00   1.0653975e+04
 3.4593401e+00   1.0635775e+04
 3.4640200e+00   1.0652736e+04
 3.4686999e+00   1.0636561e+04
 3.4733801e+00   1.0654761e+04
 3.4780600e+00   1.0646387e+04
 3.4827399e+00   1.0630786e+04
 3.4874201e+00   1.0649099e+04
 3.4921000e+00   1.0632885e+04
 3.4967799e+00   1.0610891e+04
 3.5014601e+00   1.0626506e+04
 3.5061400e+00   1.0618569e+04
 3.5108199e+00   1.0605975e+04
 3.5155001e+00   1.0652034e+04
 3.5201800e+00   1.0614859e+04
 3.5248599e+00   1.0621554e+04
 3.5295401e+00   1.0656640e+04
 3.5342200e+00   1.0616500e+04
 3.5388999e+00   1.0645589e+04
 3.5435801e+00   1.0652974e+04
 3.5482600e+00   1.0597337e+04
 3.5529399e+00   1.0649408e+04
 3.5576200e+00   1.0633951e+04
 3.5623000e+00   1.0614088e+04
 3.5669799e+00   1.0632964e+04
 3.5716600e+00   1.0609767e+04
 3.5763400e+00   1.0614399e+04
 3.5810201e+00   1.0643796e+04
 3.5857000e+00   1.0581298e+04
 3.5903800e+00   1.0607993e+04
 3.5950601e+00   1.0639073e+04
 3.5997400e+00   1.0581260e+04
 3.6044199e+00   1.0647176e+04
 3.6091001e+00   1.0625315e+04
 3.6137800e+00   1.0577953e+04
 3.6184599e+00   1.0670145e+04
 3.6231401e+00   1.0603549e+04
 3.6278200e+00   1.0590167e+04
 3.6324999e+00   1.0615593e+04
 3.6371801e+00   1.0525829e+04
 3.6418600e+00   1.0592134e+04
 3.6465399e+00   1.0576021e+04
 3.6512201e+00   1.0485805e+04
 3.6559000e+00   1.0584227e+04
 3.6605799e+00   1.0519971e+04
 3.6652601e+00   1.0504385e+04
 3.6699400e+00   1.0598246e+04
 3.6746199e+00   1.0424358e+04
 3.6793001e+00   1.0473157e+04
 3.6839800e+00   1.0493846e+04
 3.6886599e+00   1.0391607e+04
 3.6933401e+00   1.0462092e+04
 3.6980200e+00   1.0412615e+04
 3.7026999e+00   1.0344913e+04
 3.7073801e+00   1.0414091e+04
 3.7120600e+00   1.0284234e+04
 3.7167399e+00   1.0274924e+04
 3.7214200e+00   1.0285372e+04
 3.7261000e+00   1.0180983e+04
 3.7307799e+00   1.0182400e+04
 3.7354600e+00   1.0181532e+04
 3.7401400e+00   1.0077988e+04
 3.7448201e+00   1.0099013e+04
 3.7495000e+00   1.0023318e+04
 3.7541800e+00   9.8847944e+03
 3.7588601e+00   9.9538813e+03
 3.7635400e+00   9.7884851e+03
 3.7682199e+00   9.8711297e+03
 3.7729001e+00   9.8253539e+03
 3.7775800e+00   9.7519109e+03
 3.7822599e+00   9.7269371e+03
 3.7869401e+00   9.7715971e+03
 3.7916200e+00   9.5651691e+03
 3.7962999e+00   9.7548440e+03
 3.8009801e+00   9.5830739e+03
 3.8056600e+00   9.5537666e+03
 3.8103399e+00   9.5772905e+03
 3.8150201e+00   9.4816447e+03
 3.8197000e+00   9.4652514e+03
 3.8243799e+00   9.5270806e+03
 3.8290601e+00   9.4487117e+03
 3.8337400e+00   9.4443146e+03
 3.8384199e+00   9.4259315e+03
 3.8431001e+00   9.2772696e+03
 3.8477800e+00   9.4319409e+03
 3.8524599e+00   9.3031726e+03
 3.8571401e+00   9.3091667e+03
 3.8618200e+00   9.2569567e+03
 3.8664999e+00   9.2016741e+03
 3.8711801e+00   9.2018560e+03
 3.8758600e+00   9.1546250e+03
 3.8805399e+00   9.0668611e+03
 3.8852201e+00   9.1511593e+03
 3.8899000e+00   9.0231564e+03
 3.8945799e+00   8.9859746e+03
 3.8992600e+00   8.9951562e+03
 3.9039400e+00   8.9331141e+03
 3.9086201e+00   8.8804417e+03
 3.9133000e+00   8.9220658e+03
 3.9179800e+00   8.8162756e+03
 3.9226601e+00   8.8031753e+03
 3.9273400e+00   8.8350086e+03
 3.9320199e+00   8.7571059e+03
 3.9367001e+00   8.7314369e+03
 3.9413800e+00   8.7512784e+03
 3.9460599e+00   8.6777022e+03
 3.9507401e+00   8.6878988e+03
 3.9554200e+00   8.6776825e+03
 3.9600999e+00   8.6096733e+03
 3.9647801e+00   8.5890854e+03
 3.9694600e+00   8.5760841e+03
 3.9741399e+00   8.5434879e+03
 3.9788201e+00   8.5792017e+03
 3.9835000e+00   8.5203703e+03
 3.9881799e+00   8.4937579e+03
 3.9928601e+00   8.4477485e+03
 3.9975400e+00   8.4099241e+03
 4.0022202e+00   8.4790641e+03
 4.0068998e+00   8.3461841e+03
 4.0115800e+00   8.4101460e+03
 4.0162601e+00   8.4104497e+03
 4.0209398e+00   8.3024577e+03
 4.0256200e+00   8.3480323e+03
 4.0303001e+00   8.3337371e+03
 4.0349798e+00   8.2758763e+03
 4.0396600e+00   8.3429572e+03
 4.0443401e+00   8.2273864e+03
 4.0490198e+00   8.2478339e+03
 4.0537000e+00   8.2619167e+03
 4.0583801e+00   8.1978851e+03
 4.0630598e+00   8.2002849e+03
 4.0677400e+00   8.1940228e+03
 4.0724201e+00   8.1132635e+03
 4.0770998e+00   8.1175114e+03
 4.0817800e+00   8.0881356e+03
 4.0864601e+00   8.0821085e+03
 4.0911398e+00   8.1461864e+03
 4.0958200e+00   8.0235607e+03
 4.1005001e+00   8.0956971e+03
 4.1051798e+00   8.0498257e+03
 4.1098599e+00   8.0047724e+03
 4.1145401e+00   8.0708993e+03
 4.1192198e+00   8.0026873e+03
 4.1238999e+00   7.9458977e+03
 4.1285801e+00   8.0599859e+03
 4.1332598e+00   7.9306058e+03
 4.1379399e+00   7.9955754e+03
 4.1426201e+00   7.9489020e+03
 4.1472998e+00   7.8781228e+03
 4.1519799e+00   7.8955223e+03
 4.1566601e+00   7.9115982e+03
 4.1613402e+00   7.8077707e+03
 4.1660199e+00   7.9675381e+03
 4.1707001e+00   7.7970838e+03
 4.1753802e+00   7.8190415e+03
 4.1800599e+00   7.8522108e+03
 4.1847401e+00   7.7471432e+03
 4.1894202e+00   7.8306041e+03
 4.1940999e+00   7.7745602e+03
 4.1987801e+00   7.7252179e+03
 4.2034602e+00   7.8357105e+03
 4.2081399e+00   7.7488399e+03
 4.2128201e+00   7.7840540e+03
 4.2175002e+00   7.8884149e+03
 4.2221799e+00   7.7538466e+03
 4.2268600e+00   7.7422897e+03
 4.2315402e+00   7.7935435e+03
 4.2362199e+00   7.6643365e+03
 4.2409000e+00   7.7657936e+03
 4.2455802e+00   7.7234081e+03
 4.2502599e+00   7.6277196e+03
 4.2549400e+00   7.7780637e+03
 4.2596202e+00   7.7026210e+03
 4.2642999e+00   7.7558108e+03
 4.2689800e+00   7.8318220e+03
 4.2736602e+00   7.8292104e+03
 4.2783399e+00   7.8618780e+03
 4.2830200e+00   7.9543626e+03
 4.2877002e+00   7.9582761e+03
 4.2923799e+00   8.0800589e+03
 4.2970600e+00   8.1358698e+03
 4.3017402e+00   8.1589553e+03
 4.3064198e+00   8.2107303e+03
 4.3111000e+00   8.2723751e+03
 4.3157802e+00   8.3629091e+03
 4.3204598e+00   8.4700521e+03
 4.3251400e+00   8.4768002e+03
 4.3298202e+00   8.6248976e+03
 4.3344998e+00   8.6058215e+03
 4.3391800e+00   8.7094584e+03
 4.3438601e+00   8.8223633e+03
 4.3485398e+00   8.8555391e+03
 4.3532200e+00   8.9088004e+03
 4.3579001e+00   8.9718189e+03
 4.3625798e+00   8.8492222e+03
 4.3672600e+00   8.8873583e+03
 4.3719401e+00   8.8064112e+03
 4.3766198e+00   8.7718925e+03
 4.3813000e+00   8.7059700e+03
 4.3859801e+00   8.6483822e+03
 4.3906598e+00   8.5092254e+03
 4.3953400e+00   8.5068004e+03
 4.4000201e+00   8.3333411e+03
 4.4046998e+00   8.3558495e+03
 4.4093800e+00   8.2377259e+03
 4.4140601e+00   8.1811065e+03
 4.4187398e+00   8.1353389e+03
 4.4234200e+00   8.0522479e+03
 4.4281001e+00   7.9651649e+03
 4.4327798e+00   8.0048340e+03
 4.4374599e+00   7.8959595e+03
 4.4421401e+00   7.8726993e+03
 4.4468198e+00   7.8498212e+03
 4.4514999e+00   7.7748830e+03
 4.4561801e+00   7.7946727e+03
 4.4608598e+00   7.7645265e+03
 4.4655399e+00   7.7296990e+03
 4.4702201e+00   7.7535702e+03
 4.4748998e+00   7.7038814e+03
 4.4795799e+00   7.6694240e+03
 4.4842601e+00   7.7125290e+03
 4.4889398e+00   7.6508832e+03
 4.4936199e+00   7.5787456e+03
 4.4983001e+00   7.5717337e+03
 4.5029802e+00   7.4650458e+03
 4.5076599e+00   7.4277894e+03
 4.5123401e+00   7.3527309e+03
 4.5170202e+00   7.2511465e+03
 4.5216999e+00   7.2088228e+03
 4.5263801e+00   7.1248442e+03
 4.5310602e+00   7.0780078e+03
 4.5357399e+00   7.0592455e+03
 4.5404201e+00   7.0163101e+03
 4.5451002e+00   6.9794422e+03
 4.5497799e+00   6.9584828e+03
 4.5544600e+00   6.9229032e+03
 4.5591402e+00   6.9323845e+03
 4.5638199e+00   6.8934547e+03
 4.5685000e+00   6.8426289e+03
 4.5731802e+00   6.8767957e+03
 4.5778599e+00   6.8452403e+03
 4.5825400e+00   6.8302690e+03
 4.5872202e+00   6.8138321e+03
 4.5918999e+00   6.8023238e+03
 4.5965800e+00   6.7841140e+03
 4.6012602e+00   6.7389487e+03
 4.6059399e+00   6.7408323e+03
 4.6106200e+00   6.7350625e+03
 4.6153002e+00   6.7171509e+03
 4.6199799e+00   6.6702935e+03
 4.6246600e+00   6.6791078e+03
 4.6293402e+00   6.6652514e+03
 4.6340199e+00   6.6484546e+03
 4.6387000e+00   6.6488867e+03
 4.6433802e+00   6.6255236e+03
 4.6480598e+00   6.6220431e+03
 4.6527400e+00   6.5898243e+03
 4.6574202e+00   6.5617246e+03
 4.6620998e+00   6.5936846e+03
 4.6667800e+00   6.5706615e+03
 4.6714602e+00   6.5528887e+03
 4.6761398e+00   6.5546171e+03
 4.6808200e+00   6.5411104e+03
 4.6855001e+00   6.5385583e+03
 4.6901798e+00   6.5548475e+03
 4.6948600e+00   6.5589263e+03
 4.6995401e+00   6.5744956e+03
 4.7042198e+00   6.6070243e+03
 4.7089000e+00   6.6141620e+03
 4.7135801e+00   6.6898614e+03
 4.7182598e+00   6.7337566e+03
 4.7229400e+00   6.8596533e+03
 4.7276201e+00   6.9213230e+03
 4.7322998e+00   7.0167690e+03
 4.7369800e+00   7.1060054e+03
 4.7416601e+00   7.2014208e+03
 4.7463398e+00   7.2750398e+03
 4.7510200e+00   7.3590626e+03
 4.7557001e+00   7.4460089e+03
 4.7603798e+00   7.5558139e+03
 4.7650599e+00   7.6841489e+03
 4.7697401e+00   7.8350840e+03
 4.7744198e+00   8.0207551e+03
 4.7790999e+00   8.2311950e+03
 4.7837801e+00   8.4588106e+03
 4.7884598e+00   8.7249335e+03
 4.7931399e+00   8.9434000e+03
 4.7978201e+00   9.1343197e+03
 4.8024998e+00   9.2829455e+03
 4.8071799e+00   9.3635549e+03
 4.8118601e+00   9.3319698e+03
 4.8165398e+00   9.2141597e+03
 4.8212199e+00   9.0695516e+03
 4.8259001e+00   8.8114057e+03
 4.8305802e+00   8.5689930e+03
 4.8352599e+00   8.2806298e+03
 4.8399401e+00   8.0398509e+03
 4.8446202e+00   7.7731202e+03
 4.8492999e+00   7.5479622e+03
 4.8539801e+00   7.3579079e+03
 4.8586602e+00   7.1750791e+03
 4.8633399e+00   7.0481253e+03
 4.8680201e+00   6.9802647e+03
 4.8727002e+00   6.9156726e+03
 4.8773799e+00   6.9345081e+03
 4.8820601e+00   6.9820293e+03
 4.8867402e+00   7.0508456e+03
 4.8914199e+00   7.1900791e+03
 4.8961000e+00   7.3969365e+03
 4.9007802e+00   7.5440663e+03
 4.9054599e+00   7.7635894e+03
 4.9101400e+00   7.9403669e+03
 4.9148202e+00   8.1167586e+03
 4.9194999e+00   8.2475117e+03
 4.9241800e+00   8.3640198e+03
 4.9288602e+00   8.4417505e+03
 4.9335399e+00   8.4744764e+03
 4.9382200e+00   8.5040136e+03
 4.9429002e+00   8.4725619e+03
 4.9475799e+00   8.4855193e+03
 4.9522600e+00   8.4209075e+03
 4.9569402e+00   8.3932620e+03
 4.9616199e+00   8.3266145e+03
 4.9663000e+00   8.2785061e+03
 4.9709802e+00   8.2147518e+03
 4.9756598e+00   8.1508640e+03
 4.9803400e+00   8.0652418e+03
 4.9850202e+00   8.0065119e+03
 4.9896998e+00   7.8775715e+03
 4.9943800e+00   7.7815316e+03
 4.9990602e+00   7.6647847e+03
 5.0037398e+00   7.5179102e+03
 5.0084200e+00   7.3846485e+03
 5.0131001e+00   7.2178750e+03
 5.0177798e+00   7.0879317e+03
 5.0224600e+00   6.9619257e+03
 5.0271401e+00   6.8123163e+03
 5.0318198e+00   6.6951039e+03
 5.0365000e+00   6.6297700e+03
 5.0411801e+00   6.5044331e+03
 5.0458598e+00   6.4445542e+03
 5.0505400e+00   6.3904036e+03
 5.0552201e+00   6.3716140e+03
 5.0598998e+00   6.3373663e+03
 5.0645800e+00   6.3470005e+03
 5.0692601e+00   6.3689870e+03
 5.0739398e+00   6.3990869e+03
 5.0786200e+00   6.4838972e+03
 5.0833001e+00   6.6244057e+03
 5.0879798e+00   6.7222233e+03
 5.0926600e+00   6.8438331e+03
 5.0973401e+00   6.9555797e+03
 5.1020198e+00   7.3514989e+03
 5.1066999e+00   7.7136110e+03
 5.1113801e+00   7.7808086e+03
 5.1160598e+00   7.6026977e+03
 5.1207399e+00   7.8715145e+03
 5.1254201e+00   8.4380596e+03
 5.1300998e+00   9.8929729e+03
 5.1347799e+00   1.1058127e+04
 5.1394601e+00   1.2594125e+04
 5.1441398e+00   1.2928381e+04
 5.1488199e+00   1.3126265e+04
 5.1535001e+00   1.1850716e+04
 5.1581802e+00   1.0912693e+04
 5.1628599e+00   9.5942590e+03
 5.1675401e+00   8.5009344e+03
 5.1722202e+00   7.5846669e+03
 5.1768999e+00   6.9648253e+03
 5.1815801e+00   6.5803740e+03
 5.1862602e+00   6.5194899e+03
 5.1909399e+00   6.5830848e+03
 5.1956201e+00   6.4915961e+03
 5.2003002e+00   6.4130820e+03
 5.2049799e+00   6.2260126e+03
 5.2096601e+00   6.1891187e+03
 5.2143402e+00   6.1514165e+03
 5.2190199e+00   6.1227638e+03
 5.2237000e+00   6.0701057e+03
 5.2283802e+00   6.0112711e+03
 5.2330599e+00   5.9875966e+03
 5.2377400e+00   5.9439043e+03
 5.2424202e+00   5.9218322e+03
 5.2470999e+00   5.9191221e+03
 5.2517800e+00   5.8726329e+03
 5.2564602e+00   5.8728095e+03
 5.2611399e+00   5.8668013e+03
 5.2658200e+00   5.8491366e+03
 5.2705002e+00   5.8412198e+03
 5.2751799e+00   5.8034705e+03
 5.2798600e+00   5.8163384e+03
 5.2845402e+00   5.7926312e+03
 5.2892199e+00   5.7931761e+03
 5.2939000e+00   5.7806214e+03
 5.2985802e+00   5.7847602e+03
 5.3032598e+00   5.7674647e+03
 5.3079400e+00   5.7829755e+03
 5.3126202e+00   5.7707443e+03
 5.3172998e+00   5.7798966e+03
 5.3219800e+00   5.7667440e+03
 5.3266602e+00   5.7620798e+03
 5.3313398e+00   5.7431839e+03
 5.3360200e+00   5.7434427e+03
 5.3407001e+00   5.7465330e+03
 5.3453798e+00   5.7555680e+03
 5.3500600e+00   5.7467716e+03
 5.3547401e+00   5.7472957e+03
 5.3594198e+00   5.7489913e+03
 5.3641000e+00   5.7441778e+03
 5.3687801e+00   5.7504923e+03
 5.3734598e+00   5.7481646e+03
 5.3781400e+00   5.7628744e+03
 5.3828201e+00   5.7718875e+03
 5.3874998e+00   5.7625852e+03
 5.3921800e+00   5.7886298e+03
 5.3968601e+00   5.7776487e+03
 5.4015398e+00   5.7889744e+03
 5.4062200e+00   5.8131815e+03
 5.4109001e+00   5.8172809e+03
 5.4155798e+00   5.8234789e+03
 5.4202600e+00   5.8407069e+03
 5.4249401e+00   5.8592198e+03
 5.4296198e+00   5.8764860e+03
 5.4342999e+00   5.9103087e+03
 5.4389801e+00   5.9122666e+03
 5.4436598e+00   5.9435723e+03
 5.4483399e+00   5.9599592e+03
 5.4530201e+00   6.0023199e+03
 5.4576998e+00   6.0564020e+03
 5.4623799e+00   6.1112230e+03
 5.4670601e+00   6.1649530e+03
 5.4717398e+00   6.2435444e+03
 5.4764199e+00   6.3183228e+03
 5.4811001e+00   6.4402133e+03
 5.4857798e+00   6.5678952e+03
 5.4904599e+00   6.6959867e+03
 5.4951401e+00   6.8855120e+03
 5.4998202e+00   7.1144946e+03
 5.5044999e+00   7.4441808e+03
 5.5091801e+00   7.8126824e+03
 5.5138602e+00   8.2552188e+03
 5.5185399e+00   8.8176831e+03
 5.5232201e+00   9.4571896e+03
 5.5279002e+00   1.0230649e+04
 5.5325799e+00   1.1148687e+04
 5.5372601e+00   1.2077811e+04
 5.5419402e+00   1.3160514e+04
 5.5466199e+00   1.4091700e+04
 5.5513000e+00   1.4954988e+04
 5.5559802e+00   1.5622782e+04
 5.5606599e+00   1.6025465e+04
 5.5653400e+00   1.6138849e+04
 5.5700202e+00   1.6018201e+04
 5.5746999e+00   1.5655090e+04
 5.5793800e+00   1.5108568e+04
 5.5840602e+00   1.4435575e+04
 5.5887399e+00   1.3687096e+04
 5.5934200e+00   1.2957872e+04
 5.5981002e+00   1.2213209e+04
 5.6027799e+00   1.1548327e+04
 5.6074600e+00   1.0933486e+04
 5.6121402e+00   1.0369911e+04
 5.6168199e+00   9.8867131e+03
 5.6215000e+00   9.4539338e+03
 5.6261802e+00   9.0589316e+03
 5.6308599e+00   8.7191650e+03
 5.6355400e+00   8.4064962e+03
 5.6402202e+00   8.1193714e+03
 5.6448998e+00   7.8585188e+03
 5.6495800e+00   7.6240488e+03
 5.6542602e+00   7.3905874e+03
 5.6589398e+00   7.2007618e+03
 5.6636200e+00   7.0043499e+03
 5.6683002e+00   6.8246516e+03
 5.6729798e+00   6.6779228e+03
 5.6776600e+00   6.5582611e+03
 5.6823401e+00   6.4220081e+03
 5.6870198e+00   6.3505248e+03
 5.6917000e+00   6.2527539e+03
 5.6963801e+00   6.1905709e+03
 5.7010598e+00   6.1225512e+03
 5.7057400e+00   6.0689261e+03
 5.7104201e+00   6.0200212e+03
 5.7150998e+00   5.9689075e+03
 5.7197800e+00   5.9571324e+03
 5.7244601e+00   5.9261234e+03
 5.7291398e+00   5.9048218e+03
 5.7338200e+00   5.8930631e+03
 5.7385001e+00   5.8971211e+03
 5.7431798e+00   5.8880470e+03
 5.7478600e+00   5.8979646e+03
 5.7525401e+00   5.8930825e+03
 5.7572198e+00   5.8888657e+03
 5.7618999e+00   5.9006158e+03
 5.7665801e+00   5.8854343e+03
 5.7712598e+00   5.8643999e+03
 5.7759399e+00   5.8617769e+03
 5.7806201e+00   5.8419618e+03
 5.7852998e+00   5.8290856e+03
 5.7899799e+00   5.8054766e+03
 5.7946601e+00   5.7866815e+03
 5.7993398e+00   5.7878092e+03
 5.8040199e+00   5.7809152e+03
 5.8087001e+00   5.7735583e+03
 5.8133798e+00   5.7630532e+03
 5.8180599e+00   5.7388044e+03
 5.8227401e+00   5.7499545e+03
 5.8274202e+00   5.7523698e+03
 5.8320999e+00   5.7408855e+03
 5.8367801e+00   5.7599169e+03
 5.8414602e+00   5.7502461e+03
 5.8461399e+00   5.7680931e+03
 5.8508201e+00   5.7845466e+03
 5.8555002e+00   5.7929915e+03
 5.8601799e+00   5.8089899e+03
 5.8648601e+00   5.8456580e+03
 5.8695402e+00   5.8698097e+03
 5.8742199e+00   5.8980821e+03
 5.8789001e+00   5.9125856e+03
 5.8835802e+00   5.9752886e+03
 5.8882599e+00   6.0155400e+03
 5.8929400e+00   6.0601475e+03
 5.8976202e+00   6.1275340e+03
 5.9022999e+00   6.1751938e+03
 5.9069800e+00   6.3165702e+03
 5.9116602e+00   6.5386181e+03
 5.9163399e+00   6.7180853e+03
 5.9210200e+00   6.8914341e+03
 5.9257002e+00   6.9343149e+03
 5.9303799e+00   7.1971384e+03
 5.9350600e+00   7.6757745e+03
 5.9397402e+00   7.9512977e+03
 5.9444199e+00   8.0194971e+03
 5.9491000e+00   7.9046355e+03
 5.9537802e+00   7.7139964e+03
 5.9584599e+00   7.2885490e+03
 5.9631400e+00   7.1651404e+03
 5.9678202e+00   7.0932749e+03
 5.9724998e+00   7.0126129e+03
 5.9771800e+00   6.8870813e+03
 5.9818602e+00   6.7817357e+03
 5.9865398e+00   6.7313474e+03
 5.9912200e+00   6.7052817e+03
 5.9959002e+00   6.6618582e+03
 6.0005798e+00   6.6224053e+03
 6.0052600e+00   6.5371908e+03
 6.0099401e+00   6.4999565e+03
 6.0146198e+00   6.4444744e+03
 6.0193000e+00   6.3611594e+03
 6.0239801e+00   6.3301536e+03
 6.0286598e+00   6.2596379e+03
 6.0333400e+00   6.1946446e+03
 6.0380201e+00   6.1630156e+03
 6.0426998e+00   6.0991849e+03
 6.0473800e+00   6.0580340e+03
 6.0520601e+00   6.0251390e+03
 6.0567398e+00   5.9665651e+03
 6.0614200e+00   5.9546237e+03
 6.0661001e+00   5.9000906e+03
 6.0707798e+00   5.8745034e+03
 6.0754600e+00   5.8798987e+03
 6.0801401e+00   5.8534298e+03
 6.0848198e+00   5.8139674e+03
 6.0895000e+00   5.8202750e+03
 6.0941801e+00   5.7867937e+03
 6.0988598e+00   5.7894442e+03
 6.1035399e+00   5.7886012e+03
 6.1082201e+00   5.7630302e+03
 6.1128998e+00   5.7720640e+03
 6.1175799e+00   5.7640166e+03
 6.1222601e+00   5.7444715e+03
 6.1269398e+00   5.7509329e+03
 6.1316199e+00   5.7511594e+03
 6.1363001e+00   5.7507437e+03
 6.1409798e+00   5.7536391e+03
 6.1456599e+00   5.7234580e+03
 6.1503401e+00   5.7512261e+03
 6.1550202e+00   5.7315460e+03
 6.1596999e+00   5.7456375e+03
 6.1643801e+00   5.7427987e+03
 6.1690602e+00   5.7397529e+03
 6.1737399e+00   5.7337133e+03
 6.1784201e+00   5.7594493e+03
 6.1831002e+00   5.7372446e+03
 6.1877799e+00   5.7677776e+03
 6.1924601e+00   5.7441321e+03
 6.1971402e+00   5.7564639e+03
 6.2018199e+00   5.7589504e+03
 6.2065001e+00   5.7299830e+03
 6.2111802e+00   5.7595237e+03
 6.2158599e+00   5.7750551e+03
 6.2205400e+00   5.7540154e+03
 6.2252202e+00   5.7768100e+03
 6.2298999e+00   5.7820647e+03
 6.2345800e+00   5.7504703e+03
 6.2392602e+00   5.7716273e+03
 6.2439399e+00   5.7590833e+03
 6.2486200e+00   5.7615945e+03
 6.2533002e+00   5.7729815e+03
 6.2579799e+00   5.7759945e+03
 6.2626600e+00   5.7727727e+03
 6.2673402e+00   5.7956306e+03
 6.2720199e+00   5.7628380e+03
 6.2767000e+00   5.8139277e+03
 6.2813802e+00   5.7828256e+03
 6.2860599e+00   5.7901282e+03
 6.2907400e+00   5.7962735e+03
 6.2954202e+00   5.8040063e+03
 6.3000998e+00   5.7955783e+03
 6.3047800e+00   5.8175240e+03
 6.3094602e+00   5.7959895e+03
 6.3141398e+00   5.8230986e+03
 6.3188200e+00   5.8201859e+03
 6.3235002e+00   5.8117572e+03
 6.3281798e+00   5.8398572e+03
 6.3328600e+00   5.8396369e+03
 6.3375401e+00   5.8720768e+03
 6.3422198e+00   5.8756486e+03
 6.3469000e+00   5.8459798e+03
 6.3515801e+00   5.8638132e+03
 6.3562598e+00   5.8843973e+03
 6.3609400e+00   5.8484510e+03
 6.3656201e+00   5.8781116e+03
 6.3702998e+00   5.8410254e+03
 6.3749800e+00   5.8572648e+03
 6.3796601e+00   5.8496258e+03
 6.3843398e+00   5.8842292e+03
 6.3890200e+00   5.8774241e+03
 6.3937001e+00   5.8775917e+03
 6.3983798e+00   5.8568058e+03
 6.4030600e+00   5.8824315e+03
 6.4077401e+00   5.8948389e+03
 6.4124198e+00   5.8933272e+03
 6.4171000e+00   5.9106837e+03
 6.4217801e+00   5.8952110e+03
 6.4264598e+00   5.9140100e+03
 6.4311399e+00   5.9020559e+03
 6.4358201e+00   5.9287167e+03
 6.4404998e+00   5.9278673e+03
 6.4451799e+00   5.9573727e+03
 6.4498601e+00   5.9209429e+03
 6.4545398e+00   5.9267067e+03
 6.4592199e+00   5.9171170e+03
 6.4639001e+00   5.9324536e+03
 6.4685798e+00   5.9520559e+03
 6.4732599e+00   5.9057340e+03
 6.4779401e+00   5.9295520e+03
 6.4826198e+00   5.9273284e+03
 6.4872999e+00   5.9391324e+03
 6.4919801e+00   5.9490129e+03
 6.4966602e+00   5.9716150e+03
 6.5013399e+00   5.9370836e+03
 6.5060201e+00   5.9834046e+03
 6.5107002e+00   5.9432975e+03
 6.5153799e+00   5.9659746e+03
 6.5200601e+00   5.9911741e+03
 6.5247402e+00   5.9955015e+03
 6.5294199e+00   5.9829216e+03
 6.5341001e+00   6.0196483e+03
 6.5387802e+00   6.0125508e+03
 6.5434599e+00   6.0318094e+03
 6.5481400e+00   6.0436496e+03
 6.5528202e+00   6.0365322e+03
 6.5574999e+00   6.0680063e+03
 6.5621800e+00   6.0396830e+03
 6.5668602e+00   6.0633196e+03
 6.5715399e+00   6.0802166e+03
 6.5762200e+00   6.0689147e+03
 6.5809002e+00   6.0983926e+03
 6.5855799e+00   6.0983804e+03
 6.5902600e+00   6.0652142e+03
 6.5949402e+00   6.1227536e+03
 6.5996199e+00   6.0976677e+03
 6.6043000e+00   6.1373707e+03
 6.6089802e+00   6.1221571e+03
 6.6136599e+00   6.1322011e+03
 6.6183400e+00   6.1624998e+03
 6.6230202e+00   6.1542156e+03
 6.6276999e+00   6.1525114e+03
 6.6323800e+00   6.1708882e+03
 6.6370602e+00   6.1766892e+03
 6.6417398e+00   6.1597417e+03
 6.6464200e+00   6.2443277e+03
 6.6511002e+00   6.2041790e+03
 6.6557798e+00   6.2286895e+03
 6.6604600e+00   6.2558839e+03
 6.6651402e+00   6.2784964e+03
 6.6698198e+00   6.2583333e+03
 6.6745000e+00   6.2781215e+03
 6.6791801e+00   6.2749084e+03
 6.6838598e+00   6.3261535e+03
 6.6885400e+00   6.2780350e+03
 6.6932201e+00   6.3255665e+03
 6.6978998e+00   6.3029486e+03
 6.7025800e+00   6.3340286e+03
 6.7072601e+00   6.3424984e+03
 6.7119398e+00   6.3486257e+03
 6.7166200e+00   6.3601790e+03
 6.7213001e+00   6.3708401e+03
 6.7259798e+00   6.3909789e+03
 6.7306600e+00   6.3852979e+03
 6.7353401e+00   6.4700044e+03
 6.7400198e+00   6.4288701e+03
 6.7447000e+00   6.4727299e+03
 6.7493801e+00   6.4528899e+03
 6.7540598e+00   6.4955038e+03
 6.7587399e+00   6.4952692e+03
 6.7634201e+00   6.5112667e+03
 6.7680998e+00   6.4914432e+03
 6.7727799e+00   6.5976451e+03
 6.7774601e+00   6.5055126e+03
 6.7821398e+00   6.5763072e+03
 6.7868199e+00   6.5611528e+03
 6.7915001e+00   6.5894090e+03
 6.7961798e+00   6.5695763e+03
 6.8008599e+00   6.5908852e+03
 6.8055401e+00   6.6031169e+03
 6.8102198e+00   6.6320928e+03
 6.8148999e+00   6.6167207e+03
 6.8195801e+00   6.6402277e+03
 6.8242602e+00   6.6774879e+03
 6.8289399e+00   6.6368994e+03
 6.8336201e+00   6.7077434e+03
 6.8383002e+00   6.6836278e+03
 6.8429799e+00   6.7112402e+03
 6.8476601e+00   6.7881641e+03
 6.8523402e+00   6.7699614e+03
 6.8570199e+00   6.7883753e+03
 6.8617001e+00   6.8544916e+03
 6.8663802e+00   6.8861971e+03
 6.8710599e+00   6.9250914e+03
 6.8757401e+00   6.9730906e+03
 6.8804202e+00   7.0011143e+03
 6.8850999e+00   7.0467342e+03
 6.8897800e+00   7.1050212e+03
 6.8944602e+00   7.1394104e+03
 6.8991399e+00   7.2521321e+03
 6.9038200e+00   7.2513535e+03
 6.9085002e+00   7.3618167e+03
 6.9131799e+00   7.3555513e+03
 6.9178600e+00   7.5026212e+03
 6.9225402e+00   7.5074290e+03
 6.9272199e+00   7.5963771e+03
 6.9319000e+00   7.6187091e+03
 6.9365802e+00   7.6948569e+03
 6.9412599e+00   7.6646637e+03
 6.9459400e+00   7.7921723e+03
 6.9506202e+00   7.7931194e+03
 6.9552999e+00   7.8612090e+03
 6.9599800e+00   7.9241032e+03
 6.9646602e+00   7.9508607e+03
 6.9693398e+00   7.9294004e+03
 6.9740200e+00   8.0264691e+03
 6.9787002e+00   8.0373981e+03
 6.9833798e+00   8.0522308e+03
 6.9880600e+00   8.1119910e+03
 6.9927402e+00   8.1135340e+03
 6.9974198e+00   8.1400384e+03
 7.0021000e+00   8.1354179e+03
 7.0067801e+00   8.2014898e+03
 7.0114598e+00   8.2090673e+03
 7.0161400e+00   8.1890682e+03
 7.0208201e+00   8.1380628e+03
 7.0254998e+00   8.1606196e+03
 7.0301800e+00   8.0554418e+03
 7.0348601e+00   8.0496677e+03
 7.0395398e+00   7.9300839e+03
 7.0442200e+00   7.8815773e+03
 7.0489001e+00   7.7848264e+03
 7.0535798e+00   7.7354653e+03
 7.0582600e+00   7.6233864e+03
 7.0629401e+00   7.6297552e+03
 7.0676198e+00   7.4699607e+03
 7.0723000e+00   7.4518453e+03
 7.0769801e+00   7.3073457e+03
 7.0816598e+00   7.2309824e+03
 7.0863400e+00   7.1578283e+03
 7.0910201e+00   6.9999059e+03
 7.0956998e+00   6.9587564e+03
 7.1003799e+00   6.9210500e+03
 7.1050601e+00   6.8553494e+03
 7.1097398e+00   6.7902715e+03
 7.1144199e+00   6.7861251e+03
 7.1191001e+00   6.7367305e+03
 7.1237798e+00   6.7581772e+03
 7.1284599e+00   6.6975937e+03
 7.1331401e+00   6.6816771e+03
 7.1378198e+00   6.6526196e+03
 7.1424999e+00   6.6611563e+03
 7.1471801e+00   6.6144207e+03
 7.1518602e+00   6.6361881e+03
 7.1565399e+00   6.5986496e+03
 7.1612201e+00   6.6064098e+03
 7.1659002e+00   6.5615987e+03
 7.1705799e+00   6.5811770e+03
 7.1752601e+00   6.5917004e+03
 7.1799402e+00   6.5589391e+03
 7.1846199e+00   6.5542255e+03
 7.1893001e+00   6.5406040e+03
 7.1939802e+00   6.5465997e+03
 7.1986599e+00   6.5364380e+03
 7.2033401e+00   6.5507542e+03
 7.2080202e+00   6.5186158e+03
 7.2126999e+00   6.5506305e+03
 7.2173800e+00   6.4965223e+03
 7.2220602e+00   6.5063742e+03
 7.2267399e+00   6.5121911e+03
 7.2314200e+00   6.5085675e+03
 7.2361002e+00   6.5090413e+03
 7.2407799e+00   6.5120039e+03
 7.2454600e+00   6.5044756e+03
 7.2501402e+00   6.5412929e+03
 7.2548199e+00   6.5386582e+03
 7.2595000e+00   6.5335646e+03
 7.2641802e+00   6.5442665e+03
 7.2688599e+00   6.5448531e+03
 7.2735400e+00   6.5459221e+03
 7.2782202e+00   6.5538675e+03
 7.2828999e+00   6.5424962e+03
 7.2875800e+00   6.5635295e+03
 7.2922602e+00   6.5384217e+03
 7.2969398e+00   6.5356781e+03
 7.3016200e+00   6.5538487e+03
 7.3063002e+00   6.5530318e+03
 7.3109798e+00   6.5634113e+03
 7.3156600e+00   6.5699600e+03
 7.3203402e+00   6.6008890e+03
 7.3250198e+00   6.6203724e+03
 7.3297000e+00   6.6310959e+03
 7.3343801e+00   6.6327676e+03
 7.3390598e+00   6.6788814e+03
 7.3437400e+00   6.6908179e+03
 7.3484201e+00   6.7042402e+03
 7.3530998e+00   6.7178726e+03
 7.3577800e+00   6.7371977e+03
 7.3624601e+00   6.7493282e+03
 7.3671398e+00   6.7530185e+03
 7.3718200e+00   6.7808679e+03
 7.3765001e+00   6.7885468e+03
 7.3811798e+00   6.7808152e+03
 7.3858600e+00   6.7926669e+03
 7.3905401e+00   6.7871685e+03
 7.3952198e+00   6.7885758e+03
 7.3999000e+00   6.7998388e+03
 7.4045801e+00   6.8014027e+03
 7.4092598e+00   6.8033646e+03
 7.4139400e+00   6.8294113e+03
 7.4186201e+00   6.8101142e+03
 7.4232998e+00   6.8197322e+03
 7.4279799e+00   6.8315499e+03
 7.4326601e+00   6.8365078e+03
 7.4373398e+00   6.8506104e+03
 7.4420199e+00   6.8681223e+03
 7.4467001e+00   6.8672154e+03
 7.4513798e+00   6.8951304e+03
 7.4560599e+00   6.9004541e+03
 7.4607401e+00   6.9295909e+03
 7.4654198e+00   6.9532940e+03
 7.4700999e+00   6.9607911e+03
 7.4747801e+00   7.0005850e+03
 7.4794598e+00   7.0210103e+03
 7.4841399e+00   7.0590031e+03
 7.4888201e+00   7.0906971e+03
 7.4935002e+00   7.1166623e+03
 7.4981799e+00   7.1600355e+03
 7.5028601e+00   7.2311271e+03
 7.5075402e+00   7.2606905e+03
 7.5122199e+00   7.3422552e+03
 7.5169001e+00   7.3698639e+03
 7.5215802e+00   7.4220944e+03
 7.5262599e+00   7.5082026e+03
 7.5309401e+00   7.5463899e+03
 7.5356202e+00   7.6209546e+03
 7.5402999e+00   7.6635907e+03
 7.5449800e+00   7.7273183e+03
 7.5496602e+00   7.7556226e+03
 7.5543399e+00   7.8171184e+03
 7.5590200e+00   7.8293657e+03
 7.5637002e+00   7.8879193e+03
 7.5683799e+00   7.8761470e+03
 7.5730600e+00   7.9091368e+03
 7.5777402e+00   7.9073953e+03
 7.5824199e+00   7.9104712e+03
 7.5871000e+00   7.8805938e+03
 7.5917802e+00   7.8703124e+03
 7.5964599e+00   7.8117302e+03
 7.6011400e+00   7.7653406e+03
 7.6058202e+00   7.6770010e+03
 7.6104999e+00   7.5746768e+03
 7.6151800e+00   7.4677218e+03
 7.6198602e+00   7.2838216e+03
 7.6245399e+00   7.1938184e+03
 7.6292200e+00   7.0183562e+03
 7.6339002e+00   6.9288138e+03
 7.6385798e+00   6.7722708e+03
 7.6432600e+00   6.6698663e+03
 7.6479402e+00   6.5526232e+03
 7.6526198e+00   6.4911952e+03
 7.6573000e+00   6.4082538e+03
 7.6619802e+00   6.3700864e+03
 7.6666598e+00   6.3067117e+03
 7.6713400e+00   6.2716957e+03
 7.6760201e+00   6.2136699e+03
 7.6806998e+00   6.2083182e+03
 7.6853800e+00   6.1753933e+03
 7.6900601e+00   6.1332701e+03
 7.6947398e+00   6.1238443e+03
 7.6994200e+00   6.0679357e+03
 7.7041001e+00   6.0864332e+03
 7.7087798e+00   6.0594069e+03
 7.7134600e+00   6.0486954e+03
 7.7181401e+00   6.0208144e+03
 7.7228198e+00   6.0401103e+03
 7.7275000e+00   5.9874372e+03
 7.7321801e+00   6.0058133e+03
 7.7368598e+00   5.9813448e+03
 7.7415400e+00   5.9495800e+03
 7.7462201e+00   5.9533403e+03
 7.7508998e+00   5.9226835e+03
 7.7555799e+00   5.8970708e+03
 7.7602601e+00   5.9126776e+03
 7.7649398e+00   5.8730208e+03
 7.7696199e+00   5.8635795e+03
 7.7743001e+00   5.8785390e+03
 7.7789798e+00   5.8405692e+03
 7.7836599e+00   5.8549954e+03
 7.7883401e+00   5.8296506e+03
 7.7930198e+00   5.8203907e+03
 7.7976999e+00   5.8198945e+03
 7.8023801e+00   5.7946717e+03
 7.8070598e+00   5.7781623e+03
 7.8117399e+00   5.8042008e+03
 7.8164201e+00   5.7550679e+03
 7.8211002e+00   5.7744032e+03
 7.8257799e+00   5.7598134e+03
 7.8304601e+00   5.7260146e+03
 7.8351402e+00   5.7420746e+03
 7.8398199e+00   5.7379247e+03
 7.8445001e+00   5.7098340e+03
 7.8491802e+00   5.7233440e+03
 7.8538599e+00   5.6890905e+03
 7.8585401e+00   5.6948227e+03
 7.8632202e+00   5.7122670e+03
 7.8678999e+00   5.6639526e+03
 7.8725801e+00   5.6846827e+03
 7.8772602e+00   5.6654912e+03
 7.8819399e+00   5.6595805e+03
 7.8866200e+00   5.6548495e+03
 7.8913002e+00   5.6605832e+03
 7.8959799e+00   5.6373036e+03
 7.9006600e+00   5.6479290e+03
 7.9053402e+00   5.5980780e+03
 7.9100199e+00   5.6424568e+03
 7.9147000e+00   5.6034337e+03
 7.9193802e+00   5.5951923e+03
 7.9240599e+00   5.5852742e+03
 7.9287400e+00   5.5864409e+03
 7.9334202e+00   5.5895246e+03
 7.9380999e+00   5.5773965e+03
 7.9427800e+00   5.5489329e+03
 7.9474602e+00   5.5662993e+03
 7.9521399e+00   5.5623242e+03
 7.9568200e+00   5.5541853e+03
 7.9615002e+00   5.5656501e+03
 7.9661798e+00   5.5321851e+03
 7.9708600e+00   5.5352822e+03
 7.9755402e+00   5.5294048e+03
 7.9802198e+00   5.5200945e+03
 7.9849000e+00   5.5153868e+03
 7.9895802e+00   5.5373467e+03
 7.9942598e+00   5.4955027e+03
 7.9989400e+00   5.5268428e+03
 8.0036201e+00   5.4923420e+03
 8.0082998e+00   5.4870100e+03
 8.0129805e+00   5.4917203e+03
 8.0176601e+00   5.4915621e+03
 8.0223398e+00   5.4876530e+03
 8.0270205e+00   5.4926755e+03
 8.0317001e+00   5.4841323e+03
 8.0363798e+00   5.5132049e+03
 8.0410604e+00   5.5008788e+03
 8.0457401e+00   5.4950538e+03
 8.0504198e+00   5.5409073e+03
 8.0551004e+00   5.5054175e+03
 8.0597801e+00   5.5540214e+03
 8.0644598e+00   5.5750569e+03
 8.0691404e+00   5.6169037e+03
 8.0738201e+00   5.6867671e+03
 8.0784998e+00   5.7298914e+03
 8.0831804e+00   5.7740676e+03
 8.0878601e+00   5.8664167e+03
 8.0925398e+00   5.8859246e+03
 8.0972204e+00   5.9731374e+03
 8.1019001e+00   6.0368431e+03
 8.1065798e+00   6.0620863e+03
 8.1112604e+00   6.1163376e+03
 8.1159401e+00   6.1318068e+03
 8.1206198e+00   6.1337320e+03
 8.1253004e+00   6.1827649e+03
 8.1299801e+00   6.1671087e+03
 8.1346598e+00   6.1865522e+03
 8.1393404e+00   6.1967441e+03
 8.1440201e+00   6.1726032e+03
 8.1486998e+00   6.2270352e+03
 8.1533804e+00   6.2029519e+03
 8.1580601e+00   6.2595087e+03
 8.1627398e+00   6.2854609e+03
 8.1674204e+00   6.3182278e+03
 8.1721001e+00   6.3684218e+03
 8.1767797e+00   6.4354306e+03
 8.1814604e+00   6.4605509e+03
 8.1861401e+00   6.5769380e+03
 8.1908197e+00   6.6359574e+03
 8.1955004e+00   6.7278250e+03
 8.2001801e+00   6.8148001e+03
 8.2048597e+00   6.8956082e+03
 8.2095404e+00   6.9924136e+03
 8.2142200e+00   7.0775698e+03
 8.2188997e+00   7.1462771e+03
 8.2235804e+00   7.2082717e+03
 8.2282600e+00   7.2659263e+03
 8.2329397e+00   7.2714900e+03
 8.2376204e+00   7.3018117e+03
 8.2423000e+00   7.2731430e+03
 8.2469797e+00   7.2402164e+03
 8.2516603e+00   7.1477515e+03
 8.2563400e+00   7.0902861e+03
 8.2610197e+00   6.9787236e+03
 8.2657003e+00   6.8818362e+03
 8.2703800e+00   6.7452671e+03
 8.2750597e+00   6.6357547e+03
 8.2797403e+00   6.5254728e+03
 8.2844200e+00   6.4150044e+03
 8.2890997e+00   6.3158756e+03
 8.2937803e+00   6.1797208e+03
 8.2984600e+00   6.0941559e+03
 8.3031397e+00   5.9904407e+03
 8.3078203e+00   5.9265736e+03
 8.3125000e+00   5.8290611e+03
 8.3171797e+00   5.7623201e+03
 8.3218603e+00   5.6808262e+03
 8.3265400e+00   5.6286165e+03
 8.3312197e+00   5.5845837e+03
 8.3359003e+00   5.5699510e+03
 8.3405800e+00   5.5253244e+03
 8.3452597e+00   5.5278237e+03
 8.3499403e+00   5.5187703e+03
 8.3546200e+00   5.5344893e+03
 8.3592997e+00   5.5221009e+03
 8.3639803e+00   5.5811946e+03
 8.3686600e+00   5.6173758e+03
 8.3733397e+00   5.7466192e+03
 8.3780203e+00   5.9232370e+03
 8.3827000e+00   6.1160162e+03
 8.3873796e+00   6.1249577e+03
 8.3920603e+00   6.2666393e+03
 8.3967400e+00   6.5158831e+03
 8.4014196e+00   6.8905893e+03
 8.4061003e+00   7.0348162e+03
 8.4107800e+00   7.1326153e+03
 8.4154596e+00   6.9915324e+03
 8.4201403e+00   6.9303202e+03
 8.4248199e+00   6.4509584e+03
 8.4294996e+00   6.4028495e+03
 8.4341803e+00   6.3484854e+03
 8.4388599e+00   6.3332796e+03
 8.4435396e+00   6.2395140e+03
 8.4482203e+00   6.1158531e+03
 8.4528999e+00   6.1055569e+03
 8.4575796e+00   6.1079025e+03
 8.4622602e+00   6.1176755e+03
 8.4669399e+00   6.1588775e+03
 8.4716196e+00   6.1921582e+03
 8.4763002e+00   6.2163021e+03
 8.4809799e+00   6.2336740e+03
 8.4856596e+00   6.2848815e+03
 8.4903402e+00   6.2812882e+03
 8.4950199e+00   6.3155895e+03
 8.4996996e+00   6.3286985e+03
 8.5043802e+00   6.3273369e+03
 8.5090599e+00   6.3133333e+03
 8.5137396e+00   6.3181293e+03
 8.5184202e+00   6.3006191e+03
 8.5230999e+00   6.3173057e+03
 8.5277796e+00   6.2861825e+03
 8.5324602e+00   6.2832434e+03
 8.5371399e+00   6.2483734e+03
 8.5418196e+00   6.2289156e+03
 8.5465002e+00   6.2079375e+03
 8.5511799e+00   6.1865155e+03
 8.5558596e+00   6.1585747e+03
 8.5605402e+00   6.1194377e+03
 8.5652199e+00   6.1110931e+03
 8.5698996e+00   6.0299496e+03
 8.5745802e+00   6.0102823e+03
 8.5792599e+00   5.9447462e+03
 8.5839396e+00   5.9197889e+03
 8.5886202e+00   5.8576068e+03
 8.5932999e+00   5.8379359e+03
 8.5979795e+00   5.7673219e+03
 8.6026602e+00   5.7550320e+03
 8.6073399e+00   5.7027486e+03
 8.6120195e+00   5.6731730e+03
 8.6167002e+00   5.6429750e+03
 8.6213799e+00   5.5967354e+03
 8.6260595e+00   5.5788194e+03
 8.6307402e+00   5.5350999e+03
 8.6354198e+00   5.5292462e+03
 8.6400995e+00   5.5196614e+03
 8.6447802e+00   5.5006489e+03
 8.6494598e+00   5.4823186e+03
 8.6541405e+00   5.4930075e+03
 8.6588202e+00   5.4729400e+03
 8.6634998e+00   5.4664559e+03
 8.6681805e+00   5.4607460e+03
 8.6728601e+00   5.4669620e+03
 8.6775398e+00   5.4691420e+03
 8.6822205e+00   5.4691538e+03
 8.6869001e+00   5.4661625e+03
 8.6915798e+00   5.4746962e+03
 8.6962605e+00   5.4746411e+03
 8.7009401e+00   5.4726219e+03
 8.7056198e+00   5.4931388e+03
 8.7103004e+00   5.4809767e+03
 8.7149801e+00   5.4873573e+03
 8.7196598e+00   5.4850361e+03
 8.7243404e+00   5.4947953e+03
 8.7290201e+00   5.4804219e+03
 8.7336998e+00   5.4928349e+03
 8.7383804e+00   5.4942934e+03
 8.7430601e+00   5.5072965e+03
 8.7477398e+00   5.4981627e+03
 8.7524204e+00   5.5076922e+03
 8.7571001e+00   5.4960799e+03
 8.7617798e+00   5.5047397e+03
 8.7664604e+00   5.4948746e+03
 8.7711401e+00   5.4832328e+03
 8.7758198e+00   5.4808075e+03
 8.7805004e+00   5.4774565e+03
 8.7851801e+00   5.4714973e+03
 8.7898598e+00   5.4618732e+03
 8.7945404e+00   5.4502511e+03
 8.7992201e+00   5.4219133e+03
 8.8038998e+00   5.4291846e+03
 8.8085804e+00   5.4079389e+03
 8.8132601e+00   5.4057388e+03
 8.8179398e+00   5.3856651e+03
 8.8226204e+00   5.3692500e+03
 8.8273001e+00   5.3422125e+03
 8.8319798e+00   5.3367998e+03
 8.8366604e+00   5.3034380e+03
 8.8413401e+00   5.2934678e+03
 8.8460197e+00   5.2518284e+03
 8.8507004e+00   5.2425703e+03
 8.8553801e+00   5.1888960e+03
 8.8600597e+00   5.1624358e+03
 8.8647404e+00   5.1428727e+03
 8.8694201e+00   5.1062828e+03
 8.8740997e+00   5.0793833e+03
 8.8787804e+00   5.0691853e+03
 8.8834600e+00   5.0371688e+03
 8.8881397e+00   5.0168421e+03
 8.8928204e+00   5.0059154e+03
 8.8975000e+00   4.9830867e+03
 8.9021797e+00   4.9834726e+03
 8.9068604e+00   4.9537941e+03
 8.9115400e+00   4.9708557e+03
 8.9162197e+00   4.9470182e+03
 8.9209003e+00   4.9598761e+03
 8.9255800e+00   4.9464369e+03
 8.9302597e+00   4.9463246e+03
 8.9349403e+00   4.9390657e+03
 8.9396200e+00   4.9370216e+03
 8.9442997e+00   4.9486338e+03
 8.9489803e+00   4.9260871e+03
 8.9536600e+00   4.9521823e+03
 8.9583397e+00   4.9222946e+03
 8.9630203e+00   4.9413861e+03
 8.9677000e+00   4.9471034e+03
 8.9723797e+00   4.9441438e+03
 8.9770603e+00   4.9340553e+03
 8.9817400e+00   4.9462226e+03
 8.9864197e+00   4.9271006e+03
 8.9911003e+00   4.9383826e+03
 8.9957800e+00   4.9379448e+03
 9.0004597e+00   4.9385767e+03
 9.0051403e+00   4.9343336e+03
 9.0098200e+00   4.9302273e+03
 9.0144997e+00   4.9298118e+03
 9.0191803e+00   4.9129375e+03
 9.0238600e+00   4.9048962e+03
 9.0285397e+00   4.8899683e+03
 9.0332203e+00   4.8840913e+03
 9.0379000e+00   4.8627676e+03
 9.0425797e+00   4.8707457e+03
 9.0472603e+00   4.8530518e+03
 9.0519400e+00   4.8583287e+03
 9.0566196e+00   4.8423485e+03
 9.0613003e+00   4.8409256e+03
 9.0659800e+00   4.8395794e+03
 9.0706596e+00   4.8437809e+03
 9.0753403e+00   4.8477456e+03
 9.0800200e+00   4.8514073e+03
 9.0846996e+00   4.8361641e+03
 9.0893803e+00   4.8429082e+03
 9.0940599e+00   4.8449771e+03
 9.0987396e+00   4.8586374e+03
 9.1034203e+00   4.8476926e+03
 9.1080999e+00   4.8515442e+03
 9.1127796e+00   4.8634121e+03
 9.1174603e+00   4.8766949e+03
 9.1221399e+00   4.8622856e+03
 9.1268196e+00   4.8664196e+03
 9.1315002e+00   4.8834012e+03
 9.1361799e+00   4.8710393e+03
 9.1408596e+00   4.9070278e+03
 9.1455402e+00   4.8931694e+03
 9.1502199e+00   4.9085918e+03
 9.1548996e+00   4.9223002e+03
 9.1595802e+00   4.9323713e+03
 9.1642599e+00   4.9274805e+03
 9.1689396e+00   4.9536200e+03
 9.1736202e+00   4.9478346e+03
 9.1782999e+00   4.9676922e+03
 9.1829796e+00   4.9876658e+03
 9.1876602e+00   4.9873005e+03
 9.1923399e+00   5.0096686e+03
 9.1970196e+00   5.0225946e+03
 9.2017002e+00   5.0543886e+03
 9.2063799e+00   5.0615007e+03
 9.2110596e+00   5.0868531e+03
 9.2157402e+00   5.1226880e+03
 9.2204199e+00   5.1477600e+03
 9.2250996e+00   5.1663833e+03
 9.2297802e+00   5.2086887e+03
 9.2344599e+00   5.2340343e+03
 9.2391396e+00   5.2798448e+03
 9.2438202e+00   5.3172816e+03
 9.2484999e+00   5.3696570e+03
 9.2531796e+00   5.4153955e+03
 9.2578602e+00   5.4533926e+03
 9.2625399e+00   5.5068547e+03
 9.2672195e+00   5.5486384e+03
 9.2719002e+00   5.5869487e+03
 9.2765799e+00   5.6255923e+03
 9.2812595e+00   5.6636646e+03
 9.2859402e+00   5.6751146e+03
 9.2906199e+00   5.6970928e+03
 9.2952995e+00   5.7042849e+03
 9.2999802e+00   5.7235199e+03
 9.3046598e+00   5.7116968e+03
 9.3093395e+00   5.7240804e+03
 9.3140202e+00   5.7199513e+03
 9.3186998e+00   5.7153370e+03
 9.3233805e+00   5.7021896e+03
 9.3280602e+00   5.7104466e+03
 9.3327398e+00   5.6878453e+03
 9.3374205e+00   5.6833875e+03
 9.3421001e+00   5.6704618e+03
 9.3467798e+00   5.6443839e+03
 9.3514605e+00   5.6495018e+03
 9.3561401e+00   5.6183480e+03
 9.3608198e+00   5.6026889e+03
 9.3655005e+00   5.6015499e+03
 9.3701801e+00   5.5660570e+03
 9.3748598e+00   5.5443112e+03
 9.3795404e+00   5.5307974e+03
 9.3842201e+00   5.4965643e+03
 9.3888998e+00   5.4851366e+03
 9.3935804e+00   5.4548567e+03
 9.3982601e+00   5.4315329e+03
 9.4029398e+00   5.4130062e+03
 9.4076204e+00   5.3904074e+03
 9.4123001e+00   5.3826377e+03
 9.4169798e+00   5.3528281e+03
 9.4216604e+00   5.3400403e+03
 9.4263401e+00   5.3260931e+03
 9.4310198e+00   5.3024024e+03
 9.4357004e+00   5.2921356e+03
 9.4403801e+00   5.3017000e+03
 9.4450598e+00   5.2837389e+03
 9.4497404e+00   5.2849015e+03
 9.4544201e+00   5.2851192e+03
 9.4590998e+00   5.2832979e+03
 9.4637804e+00   5.2935269e+03
 9.4684601e+00   5.3060392e+03
 9.4731398e+00   5.3101134e+03
 9.4778204e+00   5.3310528e+03
 9.4825001e+00   5.3330830e+03
 9.4871798e+00   5.3407499e+03
 9.4918604e+00   5.3445052e+03
 9.4965401e+00   5.3450369e+03
 9.5012197e+00   5.3563302e+03
 9.5059004e+00   5.3377411e+03
 9.5105801e+00   5.3320895e+03
 9.5152597e+00   5.3389543e+03
 9.5199404e+00   5.3096314e+03
 9.5246201e+00   5.3075123e+03
 9.5292997e+00   5.3081102e+03
 9.5339804e+00   5.2884323e+03
 9.5386600e+00   5.2922120e+03
 9.5433397e+00   5.2810748e+03
 9.5480204e+00   5.2747073e+03
 9.5527000e+00   5.2833960e+03
 9.5573797e+00   5.2746395e+03
 9.5620604e+00   5.2744612e+03
 9.5667400e+00   5.2713264e+03
 9.5714197e+00   5.2686978e+03
 9.5761003e+00   5.2794880e+03
 9.5807800e+00   5.2664054e+03
 9.5854597e+00   5.2707185e+03
 9.5901403e+00   5.2788022e+03
 9.5948200e+00   5.2670216e+03
 9.5994997e+00   5.2702204e+03
 9.6041803e+00   5.2595591e+03
 9.6088600e+00   5.2615980e+03
 9.6135397e+00   5.2533143e+03
 9.6182203e+00   5.2439361e+03
 9.6229000e+00   5.2275649e+03
 9.6275797e+00   5.2228620e+03
 9.6322603e+00   5.2117567e+03
 9.6369400e+00   5.2021329e+03
 9.6416197e+00   5.1904651e+03
 9.6463003e+00   5.1697080e+03
 9.6509800e+00   5.1591501e+03
 9.6556597e+00   5.1384546e+03
 9.6603403e+00   5.1105849e+03
 9.6650200e+00   5.1176133e+03
 9.6696997e+00   5.0924534e+03
 9.6743803e+00   5.0841182e+03
 9.6790600e+00   5.0663416e+03
 9.6837397e+00   5.0617413e+03
 9.6884203e+00   5.0556170e+03
 9.6931000e+00   5.0352930e+03
 9.6977797e+00   5.0319802e+03
 9.7024603e+00   5.0212387e+03
 9.7071400e+00   5.0144540e+03
 9.7118196e+00   4.9953502e+03
 9.7165003e+00   4.9917971e+03
 9.7211800e+00   4.9868017e+03
 9.7258596e+00   4.9807708e+03
 9.7305403e+00   4.9703640e+03
 9.7352200e+00   4.9740883e+03
 9.7398996e+00   4.9818271e+03
 9.7445803e+00   4.9678059e+03
 9.7492599e+00   4.9806910e+03
 9.7539396e+00   4.9946863e+03
 9.7586203e+00   4.9855352e+03
 9.7632999e+00   4.9941246e+03
 9.7679796e+00   5.0178397e+03
 9.7726603e+00   5.0222900e+03
 9.7773399e+00   5.0535375e+03
 9.7820196e+00   5.0649758e+03
 9.7867002e+00   5.1125142e+03
 9.7913799e+00   5.1422141e+03
 9.7960596e+00   5.1801500e+03
 9.8007402e+00   5.2285443e+03
 9.8054199e+00   5.2940985e+03
 9.8100996e+00   5.3740867e+03
 9.8147802e+00   5.4741312e+03
 9.8194599e+00   5.6179432e+03
 9.8241396e+00   5.7850316e+03
 9.8288202e+00   5.8727627e+03
 9.8334999e+00   6.5099166e+03
 9.8381796e+00   6.9783253e+03
 9.8428602e+00   7.6578071e+03
 9.8475399e+00   8.6225385e+03
 9.8522196e+00   9.0757382e+03
 9.8569002e+00   1.0191493e+04
 9.8615799e+00   1.1092068e+04
 9.8662596e+00   1.1286511e+04
 9.8709402e+00   1.0535637e+04
 9.8756199e+00   9.7082146e+03
 9.8802996e+00   8.5778120e+03
 9.8849802e+00   7.2665348e+03
 9.8896599e+00   6.9949368e+03
 9.8943396e+00   6.6653293e+03
 9.8990202e+00   6.2817447e+03
 9.9036999e+00   6.0278034e+03
 9.9083796e+00   5.8229330e+03
 9.9130602e+00   5.7182237e+03
 9.9177399e+00   5.6470417e+03
 9.9224195e+00   5.5985876e+03
 9.9271002e+00   5.5699085e+03
 9.9317799e+00   5.5372051e+03
 9.9364595e+00   5.5188461e+03
 9.9411402e+00   5.5003743e+03
 9.9458199e+00   5.4783967e+03
 9.9504995e+00   5.4625079e+03
 9.9551802e+00   5.4491122e+03
 9.9598598e+00   5.4406218e+03
 9.9645395e+00   5.4363719e+03
 9.9692202e+00   5.4179742e+03
 9.9738998e+00   5.4134449e+03
 9.9785805e+00   5.3926858e+03
 9.9832602e+00   5.3864782e+03
 9.9879398e+00   5.3821256e+03
 9.9926205e+00   5.3697197e+03
 9.9973001e+00   5.3759263e+03
 1.0001980e+01   5.3622459e+03
 1.0006660e+01   5.3448810e+03
 1.0011340e+01   5.3242930e+03
 1.0016020e+01   5.3093567e+03
 1.0020700e+01   5.2960467e+03
 1.0025380e+01   5.2830909e+03
 1.0030060e+01   5.2609430e+03
 1.0034740e+01   5.2413253e+03
 1.0039420e+01   5.2260224e+03
 1.0044100e+01   5.2101621e+03
 1.0048780e+01   5.1959193e+03
 1.0053460e+01   5.1852315e+03
 1.0058140e+01   5.1749955e+03
 1.0062820e+01   5.1513987e+03
 1.0067500e+01   5.1532065e+03
 1.0072180e+01   5.1290111e+03
 1.0076860e+01   5.1491116e+03
 1.0081540e+01   5.1320771e+03
 1.0086220e+01   5.1302937e+03
 1.0090900e+01   5.1280898e+03
 1.0095580e+01   5.1282815e+03
 1.0100260e+01   5.1185138e+03
 1.0104940e+01   5.1254256e+03
 1.0109620e+01   5.1366827e+03
 1.0114300e+01   5.1266474e+03
 1.0118980e+01   5.1392669e+03
 1.0123660e+01   5.1295166e+03
 1.0128340e+01   5.1395890e+03
 1.0133020e+01   5.1369386e+03
 1.0137700e+01   5.1551254e+03
 1.0142380e+01   5.1501754e+03
 1.0147060e+01   5.1609207e+03
 1.0151740e+01   5.1567065e+03
 1.0156420e+01   5.1632047e+03
 1.0161100e+01   5.1667678e+03
 1.0165780e+01   5.1721049e+03
 1.0170460e+01   5.1837115e+03
 1.0175140e+01   5.1889549e+03
 1.0179820e+01   5.1817804e+03
 1.0184500e+01   5.1760117e+03
 1.0189180e+01   5.1700260e+03
 1.0193860e+01   5.1771126e+03
 1.0198540e+01   5.1821253e+03
 1.0203220e+01   5.1598781e+03
 1.0207900e+01   5.1863163e+03
 1.0212580e+01   5.1732103e+03
 1.0217260e+01   5.1800371e+03
 1.0221940e+01   5.1790050e+03
 1.0226620e+01   5.1817798e+03
 1.0231300e+01   5.1787454e+03
 1.0235980e+01   5.1977369e+03
 1.0240660e+01   5.1969049e+03
 1.0245340e+01   5.2050384e+03
 1.0250020e+01   5.2028180e+03
 1.0254700e+01   5.2490638e+03
 1.0259380e+01   5.2770169e+03
 1.0264060e+01   5.3480173e+03
 1.0268740e+01   5.4825421e+03
 1.0273420e+01   5.5191493e+03
 1.0278100e+01   5.4135814e+03
 1.0282780e+01   5.4033081e+03
 1.0287460e+01   5.5391891e+03
 1.0292140e+01   5.6863586e+03
 1.0296820e+01   5.7391832e+03
 1.0301500e+01   5.8251788e+03
 1.0306180e+01   5.8293109e+03
 1.0310860e+01   5.7344730e+03
 1.0315540e+01   5.6799412e+03
 1.0320220e+01   5.5560759e+03
 1.0324900e+01   5.6587525e+03
 1.0329580e+01   5.7532281e+03
 1.0334260e+01   5.5161001e+03
 1.0338940e+01   5.3331389e+03
 1.0343620e+01   5.2417737e+03
 1.0348300e+01   5.1920882e+03
 1.0352980e+01   5.1410917e+03
 1.0357660e+01   5.1136308e+03
 1.0362340e+01   5.0777139e+03
 1.0367020e+01   5.0699173e+03
 1.0371700e+01   5.0526474e+03
 1.0376380e+01   5.0730662e+03
 1.0381060e+01   5.0588183e+03
 1.0385740e+01   5.0635109e+03
 1.0390420e+01   5.0427510e+03
 1.0395100e+01   5.0597228e+03
 1.0399780e+01   5.0573328e+03
 1.0404460e+01   5.0455704e+03
 1.0409140e+01   5.0595627e+03
 1.0413820e+01   5.0443200e+03
 1.0418500e+01   5.0547561e+03
 1.0423180e+01   5.0664808e+03
 1.0427860e+01   5.0446099e+03
 1.0432540e+01   5.0434350e+03
 1.0437220e+01   5.0534266e+03
 1.0441900e+01   5.0525506e+03
 1.0446580e+01   5.0673099e+03
 1.0451260e+01   5.0608405e+03
 1.0455940e+01   5.0597450e+03
 1.0460620e+01   5.0610165e+03
 1.0465300e+01   5.0663213e+03
 1.0469980e+01   5.0685336e+03
 1.0474660e+01   5.0840202e+03
 1.0479340e+01   5.0794223e+03
 1.0484020e+01   5.0813081e+03
 1.0488700e+01   5.0777186e+03
 1.0493380e+01   5.0856570e+03
 1.0498060e+01   5.0859490e+03
 1.0502740e+01   5.0939030e+03
 1.0507420e+01   5.0985951e+03
 1.0512100e+01   5.1012680e+03
 1.0516780e+01   5.0927234e+03
 1.0521460e+01   5.0914398e+03
 1.0526140e+01   5.0861783e+03
 1.0530820e+01   5.0968270e+03
 1.0535500e+01   5.0944247e+03
 1.0540180e+01   5.0941181e+03
 1.0544860e+01   5.0805402e+03
 1.0549540e+01   5.0800963e+03
 1.0554220e+01   5.0775167e+03
 1.0558900e+01   5.0807796e+03
 1.0563580e+01   5.0782694e+03
 1.0568260e+01   5.0800282e+03
 1.0572940e+01   5.0592080e+03
 1.0577620e+01   5.0557692e+03
 1.0582300e+01   5.0340920e+03
 1.0586980e+01   5.0486379e+03
 1.0591660e+01   5.0266155e+03
 1.0596340e+01   5.0242842e+03
 1.0601020e+01   5.0231434e+03
 1.0605700e+01   5.0186527e+03
 1.0610380e+01   5.0048330e+03
 1.0615060e+01   4.9891280e+03
 1.0619740e+01   4.9970292e+03
 1.0624420e+01   4.9934727e+03
 1.0629100e+01   4.9984167e+03
 1.0633780e+01   4.9906846e+03
 1.0638460e+01   4.9898597e+03
 1.0643140e+01   4.9772690e+03
 1.0647820e+01   4.9787585e+03
 1.0652500e+01   4.9805444e+03
 1.0657180e+01   4.9854466e+03
 1.0661860e+01   4.9709454e+03
 1.0666540e+01   4.9781077e+03
 1.0671220e+01   4.9735788e+03
 1.0675900e+01   4.9612666e+03
 1.0680580e+01   4.9773625e+03
 1.0685260e+01   4.9661512e+03
 1.0689940e+01   4.9890213e+03
 1.0694620e+01   4.9702675e+03
 1.0699300e+01   4.9832964e+03
 1.0703980e+01   4.9896329e+03
 1.0708660e+01   4.9943172e+03
 1.0713340e+01   4.9962099e+03
 1.0718020e+01   5.0160235e+03
 1.0722700e+01   5.0010425e+03
 1.0727380e+01   5.0351897e+03
 1.0732060e+01   5.0223345e+03
 1.0736740e+01   5.0376253e+03
 1.0741420e+01   5.0356682e+03
 1.0746100e+01   5.0376963e+03
 1.0750780e+01   5.0574433e+03
 1.0755460e+01   5.0514113e+03
 1.0760140e+01   5.0492698e+03
 1.0764820e+01   5.0466626e+03
 1.0769500e+01   5.0383125e+03
 1.0774180e+01   5.0438657e+03
 1.0778860e+01   5.0536723e+03
 1.0783540e+01   5.0339008e+03
 1.0788220e+01   5.0539176e+03
 1.0792900e+01   5.0209632e+03
 1.0797580e+01   5.0294896e+03
 1.0802260e+01   5.0215488e+03
 1.0806940e+01   5.0090263e+03
 1.0811620e+01   5.0080961e+03
 1.0816300e+01   5.0013117e+03
 1.0820980e+01   5.0102977e+03
 1.0825660e+01   4.9902831e+03
 1.0830340e+01   4.9909196e+03
 1.0835020e+01   4.9865448e+03
 1.0839700e+01   4.9865481e+03
 1.0844380e+01   4.9840567e+03
 1.0849060e+01   4.9734791e+03
 1.0853740e+01   4.9642181e+03
 1.0858420e+01   4.9714886e+03
 1.0863100e+01   4.9681262e+03
 1.0867780e+01   4.9608204e+03
 1.0872460e+01   4.9489208e+03
 1.0877140e+01   4.9370353e+03
 1.0881820e+01   4.9332496e+03
 1.0886500e+01   4.9148208e+03
 1.0891180e+01   4.9092336e+03
 1.0895860e+01   4.9058730e+03
 1.0900540e+01   4.8928951e+03
 1.0905220e+01   4.8749793e+03
 1.0909900e+01   4.8706027e+03
 1.0914580e+01   4.8537101e+03
 1.0919260e+01   4.8494184e+03
 1.0923940e+01   4.8356219e+03
 1.0928620e+01   4.8297312e+03
 1.0933300e+01   4.8229687e+03
 1.0937980e+01   4.8167248e+03
 1.0942660e+01   4.8103959e+03
 1.0947340e+01   4.7964862e+03
 1.0952020e+01   4.7952292e+03
 1.0956700e+01   4.7903708e+03
 1.0961380e+01   4.7923011e+03
 1.0966060e+01   4.7761193e+03
 1.0970740e+01   4.7805706e+03
 1.0975420e+01   4.7685246e+03
 1.0980100e+01   4.7585340e+03
 1.0984780e+01   4.7539537e+03
 1.0989460e+01   4.7527379e+03
 1.0994140e+01   4.7479364e+03
 1.0998820e+01   4.7466182e+03
 1.1003500e+01   4.7501868e+03
 1.1008180e+01   4.7525103e+03
 1.1012860e+01   4.7562630e+03
 1.1017540e+01   4.7511471e+03
 1.1022220e+01   4.7580576e+03
 1.1026900e+01   4.7489387e+03
 1.1031580e+01   4.7608581e+03
 1.1036260e+01   4.7558171e+03
 1.1040940e+01   4.7650852e+03
 1.1045620e+01   4.7701198e+03
 1.1050300e+01   4.7817142e+03
 1.1054980e+01   4.7831484e+03
 1.1059660e+01   4.7999950e+03
 1.1064340e+01   4.7996610e+03
 1.1069020e+01   4.8076362e+03
 1.1073700e+01   4.8220727e+03
 1.1078380e+01   4.8213002e+03
 1.1083060e+01   4.8517102e+03
 1.1087740e+01   4.8640109e+03
 1.1092420e+01   4.8904808e+03
 1.1097100e+01   4.9084703e+03
 1.1101780e+01   4.9192021e+03
 1.1106460e+01   4.9461966e+03
 1.1111140e+01   4.9729555e+03
 1.1115820e+01   4.9770297e+03
 1.1120500e+01   5.0133755e+03
 1.1125180e+01   5.0136458e+03
 1.1129860e+01   5.0283074e+03
 1.1134540e+01   5.0258880e+03
 1.1139220e+01   5.0327148e+03
 1.1143900e+01   5.0191144e+03
 1.1148580e+01   5.0164902e+03
 1.1153260e+01   5.0127515e+03
 1.1157940e+01   5.0019838e+03
 1.1162620e+01   4.9680974e+03
 1.1167300e+01   4.9558854e+03
 1.1171980e+01   4.9516319e+03
 1.1176660e+01   4.9248548e+03
 1.1181340e+01   4.9173393e+03
 1.1186020e+01   4.8892806e+03
 1.1190700e+01   4.8803216e+03
 1.1195380e+01   4.8657248e+03
 1.1200060e+01   4.8524132e+03
 1.1204740e+01   4.8381068e+03
 1.1209420e+01   4.8312270e+03
 1.1214100e+01   4.8204224e+03
 1.1218780e+01   4.8230295e+03
 1.1223460e+01   4.8211634e+03
 1.1228140e+01   4.8047431e+03
 1.1232820e+01   4.8082133e+03
 1.1237500e+01   4.8053135e+03
 1.1242180e+01   4.7991963e+03
 1.1246860e+01   4.7802076e+03
 1.1251540e+01   4.7842859e+03
 1.1256220e+01   4.7766919e+03
 1.1260900e+01   4.7608797e+03
 1.1265580e+01   4.7528998e+03
 1.1270260e+01   4.7337530e+03
 1.1274940e+01   4.7236961e+03
 1.1279620e+01   4.7146232e+03
 1.1284300e+01   4.7019960e+03
 1.1288980e+01   4.7069645e+03
 1.1293660e+01   4.7074986e+03
 1.1298340e+01   4.6871803e+03
 1.1303020e+01   4.6893775e+03
 1.1307700e+01   4.6759918e+03
 1.1312380e+01   4.6681856e+03
 1.1317060e+01   4.6655827e+03
 1.1321740e+01   4.6523962e+03
 1.1326420e+01   4.6406471e+03
 1.1331100e+01   4.6381899e+03
 1.1335780e+01   4.6294782e+03
 1.1340460e+01   4.6170283e+03
 1.1345140e+01   4.6188883e+03
 1.1349820e+01   4.6018961e+03
 1.1354500e+01   4.6002768e+03
 1.1359180e+01   4.5857953e+03
 1.1363860e+01   4.5738139e+03
 1.1368540e+01   4.5709467e+03
 1.1373220e+01   4.5498765e+03
 1.1377900e+01   4.5615282e+03
 1.1382580e+01   4.5450793e+03
 1.1387260e+01   4.5446333e+03
 1.1391940e+01   4.5373156e+03
 1.1396620e+01   4.5238617e+03
 1.1401300e+01   4.5272975e+03
 1.1405980e+01   4.5223029e+03
 1.1410660e+01   4.5128513e+03
 1.1415340e+01   4.5167072e+03
 1.1420020e+01   4.5098175e+03
 1.1424700e+01   4.5123544e+03
 1.1429380e+01   4.5107986e+03
 1.1434060e+01   4.4975131e+03
 1.1438740e+01   4.4955499e+03
 1.1443420e+01   4.4928538e+03
 1.1448100e+01   4.4937480e+03
 1.1452780e+01   4.4992833e+03
 1.1457460e+01   4.4715585e+03
 1.1462140e+01   4.4810248e+03
 1.1466820e+01   4.4762332e+03
 1.1471500e+01   4.4739386e+03
 1.1476180e+01   4.4816147e+03
 1.1480860e+01   4.4760049e+03
 1.1485540e+01   4.4833184e+03
 1.1490220e+01   4.4734455e+03
 1.1494900e+01   4.4609436e+03
 1.1499580e+01   4.4610199e+03
 1.1504260e+01   4.4596795e+03
 1.1508940e+01   4.4497314e+03
 1.1513620e+01   4.4555536e+03
 1.1518300e+01   4.4375805e+03
 1.1522980e+01   4.4340968e+03
 1.1527660e+01   4.4384783e+03
 1.1532340e+01   4.4146413e+03
 1.1537020e+01   4.4098315e+03
 1.1541700e+01   4.4047528e+03
 1.1546380e+01   4.4040049e+03
 1.1551060e+01   4.3937343e+03
 1.1555740e+01   4.3895839e+03
 1.1560420e+01   4.3872253e+03
 1.1565100e+01   4.3861213e+03
 1.1569780e+01   4.3619643e+03
 1.1574460e+01   4.3792042e+03
 1.1579140e+01   4.3666552e+03
 1.1583820e+01   4.3675175e+03
 1.1588500e+01   4.3588970e+03
 1.1593180e+01   4.3563865e+03
 1.1597860e+01   4.3641114e+03
 1.1602540e+01   4.3585125e+03
 1.1607220e+01   4.3737376e+03
 1.1611900e+01   4.3596346e+03
 1.1616580e+01   4.3588216e+03
 1.1621260e+01   4.3656016e+03
 1.1625940e+01   4.3528958e+03
 1.1630620e+01   4.3431120e+03
 1.1635300e+01   4.3466016e+03
 1.1639980e+01   4.3461839e+03
 1.1644660e+01   4.3281973e+03
 1.1649340e+01   4.3347373e+03
 1.1654020e+01   4.3300144e+03
 1.1658700e+01   4.3232236e+03
 1.1663380e+01   4.3194985e+03
 1.1668060e+01   4.3151171e+03
 1.1672740e+01   4.3215606e+03
 1.1677420e+01   4.3141921e+03
 1.1682100e+01   4.3093954e+03
 1.1686780e+01   4.2980108e+03
 1.1691460e+01   4.3079588e+03
 1.1696140e+01   4.3004150e+03
 1.1700820e+01   4.2965718e+03
 1.1705500e+01   4.2950497e+03
 1.1710180e+01   4.2908063e+03
 1.1714860e+01   4.2852587e+03
 1.1719540e+01   4.2904597e+03
 1.1724220e+01   4.2930251e+03
 1.1728900e+01   4.2893674e+03
 1.1733580e+01   4.2934801e+03
 1.1738260e+01   4.2876266e+03
 1.1742940e+01   4.2869354e+03
 1.1747620e+01   4.2892774e+03
 1.1752300e+01   4.2846898e+03
 1.1756980e+01   4.2886853e+03
 1.1761660e+01   4.2820344e+03
 1.1766340e+01   4.2832777e+03
 1.1771020e+01   4.2845869e+03
 1.1775700e+01   4.2958273e+03
 1.1780380e+01   4.2984218e+03
 1.1785060e+01   4.3044473e+03
 1.1789740e+01   4.2943393e+03
 1.1794420e+01   4.3211061e+03
 1.1799100e+01   4.3017376e+03
 1.1803780e+01   4.2988013e+03
 1.1808460e+01   4.3113432e+03
 1.1813140e+01   4.3021050e+03
 1.1817820e+01   4.3121119e+03
 1.1822500e+01   4.3138443e+03
 1.1827180e+01   4.3120127e+03
 1.1831860e+01   4.3145265e+03
 1.1836540e+01   4.3207217e+03
 1.1841220e+01   4.3201151e+03
 1.1845900e+01   4.3208486e+03
 1.1850580e+01   4.3274612e+03
 1.1855260e+01   4.3474516e+03
 1.1859940e+01   4.3507980e+03
 1.1864620e+01   4.3702165e+03
 1.1869300e+01   4.3883481e+03
 1.1873980e+01   4.4132887e+03
 1.1878660e+01   4.4213634e+03
 1.1883340e+01   4.4338101e+03
 1.1888020e+01   4.4565628e+03
 1.1892700e+01   4.4873871e+03
 1.1897380e+01   4.5190695e+03
 1.1902060e+01   4.5369254e+03
 1.1906740e+01   4.5577983e+03
 1.1911420e+01   4.5390926e+03
 1.1916100e+01   4.5309534e+03
 1.1920780e+01   4.4903637e+03
 1.1925460e+01   4.4878436e+03
 1.1930140e+01   4.4703601e+03
 1.1934820e+01   4.4470997e+03
 1.1939500e+01   4.4541819e+03
 1.1944180e+01   4.4192265e+03
 1.1948860e+01   4.4100140e+03
 1.1953540e+01   4.4062690e+03
 1.1958220e+01   4.4050112e+03
 1.1962900e+01   4.3975768e+03
 1.1967580e+01   4.4166515e+03
 1.1972260e+01   4.4140106e+03
 1.1976940e+01   4.4263681e+03
 1.1981620e+01   4.4296458e+03
 1.1986300e+01   4.4355844e+03
 1.1990980e+01   4.4517718e+03
 1.1995660e+01   4.4584096e+03
 1.2000340e+01   4.4602860e+03
 1.2005020e+01   4.4688201e+03
 1.2009700e+01   4.4718515e+03
 1.2014380e+01   4.4683038e+03
 1.2019060e+01   4.4815780e+03
 1.2023740e+01   4.4691848e+03
 1.2028420e+01   4.4843897e+03
 1.2033100e+01   4.4643777e+03
 1.2037780e+01   4.4744449e+03
 1.2042460e+01   4.4708804e+03
 1.2047140e+01   4.4696940e+03
 1.2051820e+01   4.4812454e+03
 1.2056500e+01   4.4678630e+03
 1.2061180e+01   4.4674672e+03
 1.2065860e+01   4.4756536e+03
 1.2070540e+01   4.4718826e+03
 1.2075220e+01   4.4710909e+03
 1.2079900e+01   4.4731756e+03
 1.2084580e+01   4.4770942e+03
 1.2089260e+01   4.4756847e+03
 1.2093940e+01   4.4659901e+03
 1.2098620e+01   4.4766086e+03
 1.2103300e+01   4.4663157e+03
 1.2107980e+01   4.4632808e+03
 1.2112660e+01   4.4665152e+03
 1.2117340e+01   4.4572076e+03
 1.2122020e+01   4.4414802e+03
 1.2126700e+01   4.4284585e+03
 1.2131380e+01   4.4088432e+03
 1.2136060e+01   4.3908821e+03
 1.2140740e+01   4.3690886e+03
 1.2145420e+01   4.3438613e+03
 1.2150100e+01   4.3224075e+03
 1.2154780e+01   4.3084051e+03
 1.2159460e+01   4.2869290e+03
 1.2164140e+01   4.2623928e+03
 1.2168820e+01   4.2365859e+03
 1.2173500e+01   4.2229137e+03
 1.2178180e+01   4.1960832e+03
 1.2182860e+01   4.1807321e+03
 1.2187540e+01   4.1729831e+03
 1.2192220e+01   4.1597970e+03
 1.2196900e+01   4.1491939e+03
 1.2201580e+01   4.1424752e+03
 1.2206260e+01   4.1180681e+03
 1.2210940e+01   4.1232722e+03
 1.2215620e+01   4.1106416e+03
 1.2220300e+01   4.0938514e+03
 1.2224980e+01   4.0898142e+03
 1.2229660e+01   4.0854370e+03
 1.2234340e+01   4.1000356e+03
 1.2239020e+01   4.0819746e+03
 1.2243700e+01   4.0797041e+03
 1.2248380e+01   4.0752366e+03
 1.2253060e+01   4.0725155e+03
 1.2257740e+01   4.0647198e+03
 1.2262420e+01   4.0644861e+03
 1.2267100e+01   4.0544166e+03
 1.2271780e+01   4.0484966e+03
 1.2276460e+01   4.0524623e+03
 1.2281140e+01   4.0573326e+03
 1.2285820e+01   4.0565593e+03
 1.2290500e+01   4.0489113e+03
 1.2295180e+01   4.0513662e+03
 1.2299860e+01   4.0450778e+03
 1.2304540e+01   4.0465459e+03
 1.2309220e+01   4.0557423e+03
 1.2313900e+01   4.0582043e+03
 1.2318580e+01   4.0489777e+03
 1.2323260e+01   4.0585436e+03
 1.2327940e+01   4.0511263e+03
 1.2332620e+01   4.0536850e+03
 1.2337300e+01   4.0545082e+03
 1.2341980e+01   4.0571012e+03
 1.2346660e+01   4.0620514e+03
 1.2351340e+01   4.0559121e+03
 1.2356020e+01   4.0740127e+03
 1.2360700e+01   4.0713485e+03
 1.2365380e+01   4.0760690e+03
 1.2370060e+01   4.0860811e+03
 1.2374740e+01   4.0918270e+03
 1.2379420e+01   4.0826947e+03
 1.2384100e+01   4.0922154e+03
 1.2388780e+01   4.0991996e+03
 1.2393460e+01   4.0951066e+03
 1.2398140e+01   4.0979773e+03
 1.2402820e+01   4.0973767e+03
 1.2407500e+01   4.1104218e+03
 1.2412180e+01   4.1013970e+03
 1.2416860e+01   4.1128651e+03
 1.2421540e+01   4.1150965e+03
 1.2426220e+01   4.1202529e+03
 1.2430900e+01   4.1275476e+03
 1.2435580e+01   4.1303633e+03
 1.2440260e+01   4.1266740e+03
 1.2444940e+01   4.1445282e+03
 1.2449620e+01   4.1544150e+03
 1.2454300e+01   4.1575884e+03
 1.2458980e+01   4.1645814e+03
 1.2463660e+01   4.1632015e+03
 1.2468340e+01   4.1690447e+03
 1.2473020e+01   4.1668396e+03
 1.2477700e+01   4.1883568e+03
 1.2482380e+01   4.1880391e+03
 1.2487060e+01   4.1927384e+03
 1.2491740e+01   4.1907666e+03
 1.2496420e+01   4.1827559e+03
 1.2501100e+01   4.1822257e+03
 1.2505780e+01   4.1845422e+03
 1.2510460e+01   4.1814285e+03
 1.2515140e+01   4.1795978e+03
 1.2519820e+01   4.1844889e+03
 1.2524500e+01   4.1805553e+03
 1.2529180e+01   4.1737126e+03
 1.2533860e+01   4.1758483e+03
 1.2538540e+01   4.1653148e+03
 1.2543220e+01   4.1635388e+03
 1.2547900e+01   4.1705448e+03
 1.2552580e+01   4.1719601e+03
 1.2557260e+01   4.1708972e+03
 1.2561940e+01   4.1698217e+03
 1.2566620e+01   4.1779283e+03
 1.2571300e+01   4.1817554e+03
 1.2575980e+01   4.1849083e+03
 1.2580660e+01   4.1863185e+03
 1.2585340e+01   4.1881383e+03
 1.2590020e+01   4.1938243e+03
 1.2594700e+01   4.2025997e+03
 1.2599380e+01   4.2118186e+03
 1.2604060e+01   4.2211346e+03
 1.2608740e+01   4.2181326e+03
 1.2613420e+01   4.2274370e+03
 1.2618100e+01   4.2269016e+03
 1.2622780e+01   4.2291040e+03
 1.2627460e+01   4.2271402e+03
 1.2632140e+01   4.2429830e+03
 1.2636820e+01   4.2324667e+03
 1.2641500e+01   4.2394076e+03
 1.2646180e+01   4.2389002e+03
 1.2650860e+01   4.2352355e+03
 1.2655540e+01   4.2343973e+03
 1.2660220e+01   4.2207026e+03
 1.2664900e+01   4.2094583e+03
 1.2669580e+01   4.2021287e+03
 1.2674260e+01   4.1976993e+03
 1.2678940e+01   4.1883547e+03
 1.2683620e+01   4.1853908e+03
 1.2688300e+01   4.1799329e+03
 1.2692980e+01   4.1662141e+03
 1.2697660e+01   4.1603751e+03
