MA2b-00005.tif Azm= 0.00
2-Theta Angle (Degrees)
Intensity
       2500
 1.0023400e+00   7.9900370e+03
 1.0070200e+00   7.9813758e+03
 1.0117000e+00   7.9547336e+03
 1.0163800e+00   7.9472212e+03
 1.0210600e+00   7.8934983e+03
 1.0257400e+00   7.8923271e+03
 1.0304199e+00   7.8176871e+03
 1.0351000e+00   7.8413859e+03
 1.0397800e+00   7.7944162e+03
 1.0444601e+00   7.7301953e+03
 1.0491400e+00   7.7194995e+03
 1.0538200e+00   7.7182133e+03
 1.0585001e+00   7.6851560e+03
 1.0631800e+00   7.6778539e+03
 1.0678600e+00   7.6611231e+03
 1.0725400e+00   7.6615192e+03
 1.0772200e+00   7.5893076e+03
 1.0819000e+00   7.5873050e+03
 1.0865800e+00   7.5562943e+03
 1.0912600e+00   7.5704079e+03
 1.0959400e+00   7.4800941e+03
 1.1006200e+00   7.4990005e+03
 1.1052999e+00   7.4673005e+03
 1.1099800e+00   7.4646062e+03
 1.1146600e+00   7.4901969e+03
 1.1193399e+00   7.4310886e+03
 1.1240200e+00   7.4216397e+03
 1.1287000e+00   7.4063206e+03
 1.1333801e+00   7.3839649e+03
 1.1380600e+00   7.3628137e+03
 1.1427400e+00   7.3471909e+03
 1.1474200e+00   7.3282326e+03
 1.1521000e+00   7.3523623e+03
 1.1567800e+00   7.3263062e+03
 1.1614600e+00   7.3054991e+03
 1.1661400e+00   7.3071101e+03
 1.1708200e+00   7.3026575e+03
 1.1755000e+00   7.2790792e+03
 1.1801800e+00   7.2739352e+03
 1.1848600e+00   7.2814097e+03
 1.1895400e+00   7.2734237e+03
 1.1942199e+00   7.2655625e+03
 1.1989000e+00   7.2635546e+03
 1.2035800e+00   7.2357596e+03
 1.2082601e+00   7.2486843e+03
 1.2129400e+00   7.2186533e+03
 1.2176200e+00   7.2041259e+03
 1.2223001e+00   7.2438329e+03
 1.2269800e+00   7.2069682e+03
 1.2316600e+00   7.1982186e+03
 1.2363400e+00   7.2084042e+03
 1.2410200e+00   7.1893666e+03
 1.2457000e+00   7.2101175e+03
 1.2503800e+00   7.1774993e+03
 1.2550600e+00   7.1860637e+03
 1.2597400e+00   7.1763404e+03
 1.2644200e+00   7.1630695e+03
 1.2691000e+00   7.2106099e+03
 1.2737800e+00   7.1535808e+03
 1.2784600e+00   7.2084774e+03
 1.2831399e+00   7.1551125e+03
 1.2878200e+00   7.1710421e+03
 1.2925000e+00   7.1693971e+03
 1.2971801e+00   7.1737881e+03
 1.3018600e+00   7.1800458e+03
 1.3065400e+00   7.1966281e+03
 1.3112200e+00   7.2185704e+03
 1.3159000e+00   7.1806837e+03
 1.3205800e+00   7.1764527e+03
 1.3252600e+00   7.1983417e+03
 1.3299400e+00   7.2160770e+03
 1.3346200e+00   7.1893458e+03
 1.3393000e+00   7.2183011e+03
 1.3439800e+00   7.1887956e+03
 1.3486600e+00   7.2325517e+03
 1.3533400e+00   7.2406554e+03
 1.3580199e+00   7.2251213e+03
 1.3627000e+00   7.2232661e+03
 1.3673800e+00   7.2704257e+03
 1.3720599e+00   7.2818364e+03
 1.3767400e+00   7.2826379e+03
 1.3814200e+00   7.2776234e+03
 1.3861001e+00   7.3070966e+03
 1.3907800e+00   7.3324370e+03
 1.3954600e+00   7.3368500e+03
 1.4001400e+00   7.3498254e+03
 1.4048200e+00   7.3529116e+03
 1.4095000e+00   7.3864109e+03
 1.4141800e+00   7.3935800e+03
 1.4188600e+00   7.3794368e+03
 1.4235400e+00   7.3972463e+03
 1.4282200e+00   7.4311094e+03
 1.4329000e+00   7.4572249e+03
 1.4375800e+00   7.4896839e+03
 1.4422600e+00   7.4672639e+03
 1.4469399e+00   7.5421488e+03
 1.4516200e+00   7.5672462e+03
 1.4563000e+00   7.6098988e+03
 1.4609801e+00   7.6072140e+03
 1.4656600e+00   7.6354438e+03
 1.4703400e+00   7.6486264e+03
 1.4750201e+00   7.6668258e+03
 1.4797000e+00   7.6966708e+03
 1.4843800e+00   7.7090729e+03
 1.4890600e+00   7.7289478e+03
 1.4937400e+00   7.7497992e+03
 1.4984200e+00   7.7899463e+03
 1.5031000e+00   7.8168589e+03
 1.5077800e+00   7.8056721e+03
 1.5124600e+00   7.8600743e+03
 1.5171400e+00   7.8095378e+03
 1.5218199e+00   7.8379285e+03
 1.5265000e+00   7.8357175e+03
 1.5311800e+00   7.8751337e+03
 1.5358599e+00   7.8327429e+03
 1.5405400e+00   7.8893246e+03
 1.5452200e+00   7.8276246e+03
 1.5499001e+00   7.8356770e+03
 1.5545800e+00   7.8210531e+03
 1.5592600e+00   7.8415601e+03
 1.5639400e+00   7.7988691e+03
 1.5686200e+00   7.7831481e+03
 1.5733000e+00   7.7879511e+03
 1.5779800e+00   7.7968982e+03
 1.5826600e+00   7.7530450e+03
 1.5873400e+00   7.7701573e+03
 1.5920200e+00   7.7751994e+03
 1.5967000e+00   7.7641980e+03
 1.6013800e+00   7.7443929e+03
 1.6060600e+00   7.7666431e+03
 1.6107399e+00   7.7773583e+03
 1.6154200e+00   7.7677743e+03
 1.6201000e+00   7.7730033e+03
 1.6247801e+00   7.7556152e+03
 1.6294600e+00   7.7636505e+03
 1.6341400e+00   7.7767233e+03
 1.6388201e+00   7.7736898e+03
 1.6435000e+00   7.7627446e+03
 1.6481800e+00   7.7566163e+03
 1.6528600e+00   7.7997568e+03
 1.6575400e+00   7.7602004e+03
 1.6622200e+00   7.7778607e+03
 1.6669000e+00   7.7514443e+03
 1.6715800e+00   7.7761259e+03
 1.6762600e+00   7.7755555e+03
 1.6809400e+00   7.7731545e+03
 1.6856200e+00   7.7648687e+03
 1.6903000e+00   7.7945606e+03
 1.6949800e+00   7.7969385e+03
 1.6996599e+00   7.7693720e+03
 1.7043400e+00   7.7756054e+03
 1.7090200e+00   7.7906532e+03
 1.7137001e+00   7.7999005e+03
 1.7183800e+00   7.7956837e+03
 1.7230600e+00   7.8303589e+03
 1.7277400e+00   7.7930999e+03
 1.7324200e+00   7.8035165e+03
 1.7371000e+00   7.7920035e+03
 1.7417800e+00   7.8259924e+03
 1.7464600e+00   7.8017328e+03
 1.7511400e+00   7.8611117e+03
 1.7558200e+00   7.8159525e+03
 1.7605000e+00   7.8647737e+03
 1.7651800e+00   7.8520081e+03
 1.7698600e+00   7.8700918e+03
 1.7745399e+00   7.8594627e+03
 1.7792200e+00   7.8823597e+03
 1.7839000e+00   7.8861257e+03
 1.7885799e+00   7.9381461e+03
 1.7932600e+00   7.9023507e+03
 1.7979400e+00   7.9496988e+03
 1.8026201e+00   7.9410413e+03
 1.8073000e+00   7.9415947e+03
 1.8119800e+00   7.9841097e+03
 1.8166600e+00   8.0101309e+03
 1.8213400e+00   8.0001871e+03
 1.8260200e+00   8.0347150e+03
 1.8307000e+00   8.0251530e+03
 1.8353800e+00   8.0494086e+03
 1.8400600e+00   8.0711150e+03
 1.8447400e+00   8.0929280e+03
 1.8494200e+00   8.0947268e+03
 1.8541000e+00   8.1333220e+03
 1.8587800e+00   8.1416264e+03
 1.8634599e+00   8.1991317e+03
 1.8681400e+00   8.2038960e+03
 1.8728200e+00   8.2111335e+03
 1.8775001e+00   8.2414600e+03
 1.8821800e+00   8.2448400e+03
 1.8868600e+00   8.2572218e+03
 1.8915401e+00   8.2993441e+03
 1.8962200e+00   8.3308904e+03
 1.9009000e+00   8.3262789e+03
 1.9055800e+00   8.3612883e+03
 1.9102600e+00   8.3943229e+03
 1.9149400e+00   8.3863689e+03
 1.9196200e+00   8.4339148e+03
 1.9243000e+00   8.4546199e+03
 1.9289800e+00   8.4830515e+03
 1.9336600e+00   8.5037574e+03
 1.9383399e+00   8.5330337e+03
 1.9430200e+00   8.5582187e+03
 1.9477000e+00   8.6013862e+03
 1.9523799e+00   8.5999782e+03
 1.9570600e+00   8.6450624e+03
 1.9617400e+00   8.6960369e+03
 1.9664201e+00   8.7063022e+03
 1.9711000e+00   8.8708512e+03
 1.9757800e+00   8.7511870e+03
 1.9804600e+00   8.8219117e+03
 1.9851400e+00   8.8229360e+03
 1.9898200e+00   8.8166669e+03
 1.9945000e+00   8.8244735e+03
 1.9991800e+00   8.8599932e+03
 2.0038600e+00   8.8886025e+03
 2.0085399e+00   8.9177606e+03
 2.0132201e+00   8.9492104e+03
 2.0179000e+00   8.9699985e+03
 2.0225799e+00   9.0033447e+03
 2.0272601e+00   9.0604208e+03
 2.0319400e+00   9.0548751e+03
 2.0366199e+00   9.0947985e+03
 2.0413001e+00   9.1420374e+03
 2.0459800e+00   9.1518241e+03
 2.0506599e+00   9.1884114e+03
 2.0553401e+00   9.2393629e+03
 2.0600200e+00   9.2721086e+03
 2.0646999e+00   9.3250731e+03
 2.0693800e+00   9.3774262e+03
 2.0740600e+00   9.4561174e+03
 2.0787399e+00   9.5370780e+03
 2.0834200e+00   9.6484152e+03
 2.0881000e+00   9.7468813e+03
 2.0927801e+00   9.9513858e+03
 2.0974600e+00   1.0173971e+04
 2.1021399e+00   1.0530142e+04
 2.1068201e+00   1.0939201e+04
 2.1115000e+00   1.1645377e+04
 2.1161799e+00   1.2553646e+04
 2.1208601e+00   1.3951249e+04
 2.1255400e+00   1.5819601e+04
 2.1302199e+00   1.8282625e+04
 2.1349001e+00   2.1038696e+04
 2.1395800e+00   2.3841574e+04
 2.1442599e+00   2.6344221e+04
 2.1489401e+00   2.8167639e+04
 2.1536200e+00   2.8958637e+04
 2.1582999e+00   2.8720023e+04
 2.1629801e+00   2.7776872e+04
 2.1676600e+00   2.6372411e+04
 2.1723399e+00   2.4706379e+04
 2.1770201e+00   2.3051237e+04
 2.1817000e+00   2.1461711e+04
 2.1863799e+00   2.0010395e+04
 2.1910601e+00   1.8590075e+04
 2.1957400e+00   1.7382867e+04
 2.2004199e+00   1.6190791e+04
 2.2051001e+00   1.5254253e+04
 2.2097800e+00   1.4462557e+04
 2.2144599e+00   1.3845793e+04
 2.2191401e+00   1.3346526e+04
 2.2238200e+00   1.2984231e+04
 2.2284999e+00   1.2688888e+04
 2.2331800e+00   1.2473504e+04
 2.2378600e+00   1.2264676e+04
 2.2425399e+00   1.2077746e+04
 2.2472200e+00   1.1846084e+04
 2.2519000e+00   1.1618615e+04
 2.2565801e+00   1.1399019e+04
 2.2612600e+00   1.1185515e+04
 2.2659400e+00   1.0990183e+04
 2.2706201e+00   1.0850488e+04
 2.2753000e+00   1.0742621e+04
 2.2799799e+00   1.0660947e+04
 2.2846601e+00   1.0608862e+04
 2.2893400e+00   1.0574991e+04
 2.2940199e+00   1.0553745e+04
 2.2987001e+00   1.0572449e+04
 2.3033800e+00   1.0562886e+04
 2.3080599e+00   1.0570890e+04
 2.3127401e+00   1.0572905e+04
 2.3174200e+00   1.0583572e+04
 2.3220999e+00   1.0619832e+04
 2.3267801e+00   1.0627184e+04
 2.3314600e+00   1.0648489e+04
 2.3361399e+00   1.0689998e+04
 2.3408201e+00   1.0698608e+04
 2.3455000e+00   1.0747090e+04
 2.3501799e+00   1.0747165e+04
 2.3548601e+00   1.0818061e+04
 2.3595400e+00   1.0829523e+04
 2.3642199e+00   1.0844745e+04
 2.3689001e+00   1.0890543e+04
 2.3735800e+00   1.0915788e+04
 2.3782599e+00   1.0940414e+04
 2.3829401e+00   1.0970343e+04
 2.3876200e+00   1.1004605e+04
 2.3922999e+00   1.1053575e+04
 2.3969800e+00   1.1089929e+04
 2.4016600e+00   1.1127927e+04
 2.4063399e+00   1.1163398e+04
 2.4110200e+00   1.1169289e+04
 2.4157000e+00   1.1204721e+04
 2.4203801e+00   1.1251506e+04
 2.4250600e+00   1.1288475e+04
 2.4297400e+00   1.1307728e+04
 2.4344201e+00   1.1388754e+04
 2.4391000e+00   1.1381921e+04
 2.4437799e+00   1.1449645e+04
 2.4484601e+00   1.1466535e+04
 2.4531400e+00   1.1515073e+04
 2.4578199e+00   1.1551439e+04
 2.4625001e+00   1.1575085e+04
 2.4671800e+00   1.1611207e+04
 2.4718599e+00   1.1647936e+04
 2.4765401e+00   1.1672031e+04
 2.4812200e+00   1.1728078e+04
 2.4858999e+00   1.1768318e+04
 2.4905801e+00   1.1815094e+04
 2.4952600e+00   1.1849012e+04
 2.4999399e+00   1.1868567e+04
 2.5046201e+00   1.1928506e+04
 2.5093000e+00   1.1945914e+04
 2.5139799e+00   1.2008691e+04
 2.5186601e+00   1.2037675e+04
 2.5233400e+00   1.2065421e+04
 2.5280199e+00   1.2095965e+04
 2.5327001e+00   1.2132420e+04
 2.5373800e+00   1.2193068e+04
 2.5420599e+00   1.2218028e+04
 2.5467401e+00   1.2236675e+04
 2.5514200e+00   1.2263635e+04
 2.5560999e+00   1.2306485e+04
 2.5607800e+00   1.2336159e+04
 2.5654600e+00   1.2369404e+04
 2.5701399e+00   1.2410059e+04
 2.5748200e+00   1.2427634e+04
 2.5795000e+00   1.2444411e+04
 2.5841801e+00   1.2501186e+04
 2.5888600e+00   1.2517391e+04
 2.5935400e+00   1.2535697e+04
 2.5982201e+00   1.2562886e+04
 2.6029000e+00   1.2586865e+04
 2.6075799e+00   1.2611431e+04
 2.6122601e+00   1.2630089e+04
 2.6169400e+00   1.2661182e+04
 2.6216199e+00   1.2675098e+04
 2.6263001e+00   1.2699758e+04
 2.6309800e+00   1.2728442e+04
 2.6356599e+00   1.2749265e+04
 2.6403401e+00   1.2779022e+04
 2.6450200e+00   1.2795031e+04
 2.6496999e+00   1.2816301e+04
 2.6543801e+00   1.2824356e+04
 2.6590600e+00   1.2881930e+04
 2.6637399e+00   1.2870409e+04
 2.6684201e+00   1.2891830e+04
 2.6731000e+00   1.2948601e+04
 2.6777799e+00   1.2967366e+04
 2.6824601e+00   1.2904770e+04
 2.6871400e+00   1.3003103e+04
 2.6918199e+00   1.2959774e+04
 2.6965001e+00   1.2980104e+04
 2.7011800e+00   1.3012295e+04
 2.7058599e+00   1.3001054e+04
 2.7105401e+00   1.3022313e+04
 2.7152200e+00   1.3049853e+04
 2.7198999e+00   1.3022211e+04
 2.7245800e+00   1.3028284e+04
 2.7292600e+00   1.3018050e+04
 2.7339399e+00   1.3027797e+04
 2.7386200e+00   1.3008274e+04
 2.7433000e+00   1.2998820e+04
 2.7479801e+00   1.3005420e+04
 2.7526600e+00   1.2992589e+04
 2.7573400e+00   1.2953981e+04
 2.7620201e+00   1.2960767e+04
 2.7667000e+00   1.2977211e+04
 2.7713799e+00   1.2943400e+04
 2.7760601e+00   1.2951914e+04
 2.7807400e+00   1.2938200e+04
 2.7854199e+00   1.2935933e+04
 2.7901001e+00   1.2936622e+04
 2.7947800e+00   1.2909624e+04
 2.7994599e+00   1.2896154e+04
 2.8041401e+00   1.2900508e+04
 2.8088200e+00   1.2900849e+04
 2.8134999e+00   1.2867573e+04
 2.8181801e+00   1.2849015e+04
 2.8228600e+00   1.2850513e+04
 2.8275399e+00   1.2833716e+04
 2.8322201e+00   1.2819773e+04
 2.8369000e+00   1.2809525e+04
 2.8415799e+00   1.2781506e+04
 2.8462601e+00   1.2770244e+04
 2.8509400e+00   1.2738774e+04
 2.8556199e+00   1.2751118e+04
 2.8603001e+00   1.2708244e+04
 2.8649800e+00   1.2686166e+04
 2.8696599e+00   1.2663972e+04
 2.8743401e+00   1.2663467e+04
 2.8790200e+00   1.2659917e+04
 2.8836999e+00   1.2614756e+04
 2.8883801e+00   1.2601464e+04
 2.8930600e+00   1.2596700e+04
 2.8977399e+00   1.2570715e+04
 2.9024200e+00   1.2571869e+04
 2.9071000e+00   1.2555082e+04
 2.9117801e+00   1.2530761e+04
 2.9164600e+00   1.2505036e+04
 2.9211400e+00   1.2467535e+04
 2.9258201e+00   1.2482838e+04
 2.9305000e+00   1.2452259e+04
 2.9351799e+00   1.2418153e+04
 2.9398601e+00   1.2409601e+04
 2.9445400e+00   1.2394242e+04
 2.9492199e+00   1.2380254e+04
 2.9539001e+00   1.2355388e+04
 2.9585800e+00   1.2335062e+04
 2.9632599e+00   1.2291095e+04
 2.9679401e+00   1.2262895e+04
 2.9726200e+00   1.2266405e+04
 2.9772999e+00   1.2238758e+04
 2.9819801e+00   1.2231639e+04
 2.9866600e+00   1.2182790e+04
 2.9913399e+00   1.2128535e+04
 2.9960201e+00   1.2142599e+04
 3.0007000e+00   1.2099692e+04
 3.0053799e+00   1.2088321e+04
 3.0100601e+00   1.2064836e+04
 3.0147400e+00   1.2038287e+04
 3.0194199e+00   1.1990236e+04
 3.0241001e+00   1.2004362e+04
 3.0287800e+00   1.1978977e+04
 3.0334599e+00   1.1940407e+04
 3.0381401e+00   1.1926689e+04
 3.0428200e+00   1.1879488e+04
 3.0474999e+00   1.1855230e+04
 3.0521801e+00   1.1829356e+04
 3.0568600e+00   1.1794828e+04
 3.0615399e+00   1.1759608e+04
 3.0662200e+00   1.1725610e+04
 3.0709000e+00   1.1717231e+04
 3.0755799e+00   1.1665476e+04
 3.0802600e+00   1.1649799e+04
 3.0849400e+00   1.1618538e+04
 3.0896201e+00   1.1605606e+04
 3.0943000e+00   1.1573884e+04
 3.0989799e+00   1.1565945e+04
 3.1036601e+00   1.1533007e+04
 3.1083400e+00   1.1540890e+04
 3.1130199e+00   1.1496851e+04
 3.1177001e+00   1.1494614e+04
 3.1223800e+00   1.1464340e+04
 3.1270599e+00   1.1442458e+04
 3.1317401e+00   1.1433579e+04
 3.1364200e+00   1.1387527e+04
 3.1410999e+00   1.1364784e+04
 3.1457801e+00   1.1365913e+04
 3.1504600e+00   1.1334204e+04
 3.1551399e+00   1.1334792e+04
 3.1598201e+00   1.1302647e+04
 3.1645000e+00   1.1277586e+04
 3.1691799e+00   1.1278469e+04
 3.1738601e+00   1.1246561e+04
 3.1785400e+00   1.1231187e+04
 3.1832199e+00   1.1233349e+04
 3.1879001e+00   1.1212279e+04
 3.1925800e+00   1.1175054e+04
 3.1972599e+00   1.1214624e+04
 3.2019401e+00   1.1137504e+04
 3.2066200e+00   1.1166093e+04
 3.2112999e+00   1.1163468e+04
 3.2159801e+00   1.1115646e+04
 3.2206600e+00   1.1105774e+04
 3.2253399e+00   1.1129409e+04
 3.2300200e+00   1.1076083e+04
 3.2347000e+00   1.1075500e+04
 3.2393799e+00   1.1073950e+04
 3.2440600e+00   1.1038760e+04
 3.2487400e+00   1.1015074e+04
 3.2534201e+00   1.1028843e+04
 3.2581000e+00   1.1009175e+04
 3.2627800e+00   1.0994969e+04
 3.2674601e+00   1.0999937e+04
 3.2721400e+00   1.0995130e+04
 3.2768199e+00   1.0994282e+04
 3.2815001e+00   1.0944262e+04
 3.2861800e+00   1.0989630e+04
 3.2908599e+00   1.0932015e+04
 3.2955401e+00   1.0957698e+04
 3.3002200e+00   1.0928730e+04
 3.3048999e+00   1.0924424e+04
 3.3095801e+00   1.0923264e+04
 3.3142600e+00   1.0950141e+04
 3.3189399e+00   1.0914270e+04
 3.3236201e+00   1.0947704e+04
 3.3283000e+00   1.0914092e+04
 3.3329799e+00   1.0911460e+04
 3.3376601e+00   1.0917384e+04
 3.3423400e+00   1.0917501e+04
 3.3470199e+00   1.0887385e+04
 3.3517001e+00   1.0939143e+04
 3.3563800e+00   1.0881029e+04
 3.3610599e+00   1.0905376e+04
 3.3657401e+00   1.0906105e+04
 3.3704200e+00   1.0900715e+04
 3.3750999e+00   1.0908084e+04
 3.3797801e+00   1.0896081e+04
 3.3844600e+00   1.0876569e+04
 3.3891399e+00   1.0914311e+04
 3.3938200e+00   1.0898319e+04
 3.3985000e+00   1.0924501e+04
 3.4031799e+00   1.0917120e+04
 3.4078600e+00   1.0877034e+04
 3.4125400e+00   1.0973049e+04
 3.4172201e+00   1.0933287e+04
 3.4219000e+00   1.0949983e+04
 3.4265800e+00   1.0960655e+04
 3.4312601e+00   1.0944733e+04
 3.4359400e+00   1.0962183e+04
 3.4406199e+00   1.0980312e+04
 3.4453001e+00   1.0946331e+04
 3.4499800e+00   1.1007848e+04
 3.4546599e+00   1.0957184e+04
 3.4593401e+00   1.0990903e+04
 3.4640200e+00   1.0968297e+04
 3.4686999e+00   1.1015266e+04
 3.4733801e+00   1.0930852e+04
 3.4780600e+00   1.1049775e+04
 3.4827399e+00   1.0975247e+04
 3.4874201e+00   1.1023991e+04
 3.4921000e+00   1.1026278e+04
 3.4967799e+00   1.0997791e+04
 3.5014601e+00   1.1013979e+04
 3.5061400e+00   1.1036031e+04
 3.5108199e+00   1.0965180e+04
 3.5155001e+00   1.1042649e+04
 3.5201800e+00   1.1020502e+04
 3.5248599e+00   1.1019082e+04
 3.5295401e+00   1.1066451e+04
 3.5342200e+00   1.0999172e+04
 3.5388999e+00   1.1095796e+04
 3.5435801e+00   1.1061124e+04
 3.5482600e+00   1.1049537e+04
 3.5529399e+00   1.1059016e+04
 3.5576200e+00   1.1137712e+04
 3.5623000e+00   1.1012518e+04
 3.5669799e+00   1.1177540e+04
 3.5716600e+00   1.1044021e+04
 3.5763400e+00   1.1176321e+04
 3.5810201e+00   1.1102982e+04
 3.5857000e+00   1.1161453e+04
 3.5903800e+00   1.1087486e+04
 3.5950601e+00   1.1257514e+04
 3.5997400e+00   1.1072146e+04
 3.6044199e+00   1.1228122e+04
 3.6091001e+00   1.1159215e+04
 3.6137800e+00   1.1179031e+04
 3.6184599e+00   1.1229381e+04
 3.6231401e+00   1.1234879e+04
 3.6278200e+00   1.1179757e+04
 3.6324999e+00   1.1287330e+04
 3.6371801e+00   1.1199235e+04
 3.6418600e+00   1.1272179e+04
 3.6465399e+00   1.1334265e+04
 3.6512201e+00   1.1222594e+04
 3.6559000e+00   1.1401738e+04
 3.6605799e+00   1.1282598e+04
 3.6652601e+00   1.1392791e+04
 3.6699400e+00   1.1339835e+04
 3.6746199e+00   1.1431475e+04
 3.6793001e+00   1.1319908e+04
 3.6839800e+00   1.1664948e+04
 3.6886599e+00   1.1279049e+04
 3.6933401e+00   1.1703077e+04
 3.6980200e+00   1.1340057e+04
 3.7026999e+00   1.1725043e+04
 3.7073801e+00   1.1496431e+04
 3.7120600e+00   1.1812760e+04
 3.7167399e+00   1.1447028e+04
 3.7214200e+00   1.2063677e+04
 3.7261000e+00   1.1583090e+04
 3.7307799e+00   1.1887106e+04
 3.7354600e+00   1.1825827e+04
 3.7401400e+00   1.1894599e+04
 3.7448201e+00   1.2062546e+04
 3.7495000e+00   1.1971176e+04
 3.7541800e+00   1.2090505e+04
 3.7588601e+00   1.1979804e+04
 3.7635400e+00   1.2185335e+04
 3.7682199e+00   1.2174378e+04
 3.7729001e+00   1.2531756e+04
 3.7775800e+00   1.2127727e+04
 3.7822599e+00   1.2712402e+04
 3.7869401e+00   1.2216377e+04
 3.7916200e+00   1.2780245e+04
 3.7962999e+00   1.2533404e+04
 3.8009801e+00   1.3098105e+04
 3.8056600e+00   1.2457761e+04
 3.8103399e+00   1.3465705e+04
 3.8150201e+00   1.2435121e+04
 3.8197000e+00   1.3814707e+04
 3.8243799e+00   1.2978514e+04
 3.8290601e+00   1.3964158e+04
 3.8337400e+00   1.3134376e+04
 3.8384199e+00   1.4482241e+04
 3.8431001e+00   1.3465277e+04
 3.8477800e+00   1.4668831e+04
 3.8524599e+00   1.4168604e+04
 3.8571401e+00   1.5047319e+04
 3.8618200e+00   1.4744631e+04
 3.8664999e+00   1.5083229e+04
 3.8711801e+00   1.5143769e+04
 3.8758600e+00   1.6136518e+04
 3.8805399e+00   1.6160354e+04
 3.8852201e+00   1.7519085e+04
 3.8899000e+00   1.7118677e+04
 3.8945799e+00   1.8854920e+04
 3.8992600e+00   1.8742187e+04
 3.9039400e+00   2.2265172e+04
 3.9086201e+00   2.1239547e+04
 3.9133000e+00   3.1152172e+04
 3.9179800e+00   2.8748017e+04
 3.9226601e+00   4.6731974e+04
 3.9273400e+00   4.4681962e+04
 3.9320199e+00   6.4210794e+04
 3.9367001e+00   6.2442902e+04
 3.9413800e+00   8.8818418e+04
 3.9460599e+00   8.1149704e+04
 3.9507401e+00   9.5470829e+04
 3.9554200e+00   8.6564631e+04
 3.9600999e+00   1.0076581e+05
 3.9647801e+00   9.9032164e+04
 3.9694600e+00   9.9905459e+04
 3.9741399e+00   1.2581231e+05
 3.9788201e+00   9.3379615e+04
 3.9835000e+00   1.0507625e+05
 3.9881799e+00   5.6918121e+04
 3.9928601e+00   9.1700213e+04
 3.9975400e+00   3.7836697e+04
 4.0022202e+00   6.2905073e+04
 4.0068998e+00   3.0210062e+04
 4.0115800e+00   3.7362055e+04
 4.0162601e+00   2.1009402e+04
 4.0209398e+00   2.4463182e+04
 4.0256200e+00   1.8573006e+04
 4.0303001e+00   2.0042465e+04
 4.0349798e+00   1.6492836e+04
 4.0396600e+00   1.7302158e+04
 4.0443401e+00   1.6131765e+04
 4.0490198e+00   1.4940896e+04
 4.0537000e+00   1.5439133e+04
 4.0583801e+00   1.3909475e+04
 4.0630598e+00   1.4792732e+04
 4.0677400e+00   1.3498603e+04
 4.0724201e+00   1.3975250e+04
 4.0770998e+00   1.2960833e+04
 4.0817800e+00   1.3474444e+04
 4.0864601e+00   1.2951043e+04
 4.0911398e+00   1.3094758e+04
 4.0958200e+00   1.2468531e+04
 4.1005001e+00   1.2454458e+04
 4.1051798e+00   1.2195353e+04
 4.1098599e+00   1.1850836e+04
 4.1145401e+00   1.2048658e+04
 4.1192198e+00   1.1776387e+04
 4.1238999e+00   1.1597566e+04
 4.1285801e+00   1.1384517e+04
 4.1332598e+00   1.1279472e+04
 4.1379399e+00   1.1056124e+04
 4.1426201e+00   1.1313767e+04
 4.1472998e+00   1.0635744e+04
 4.1519799e+00   1.0966468e+04
 4.1566601e+00   1.0531868e+04
 4.1613402e+00   1.0695259e+04
 4.1660199e+00   1.0261603e+04
 4.1707001e+00   1.0555776e+04
 4.1753802e+00   1.0077393e+04
 4.1800599e+00   1.0476245e+04
 4.1847401e+00   9.8840479e+03
 4.1894202e+00   1.0253579e+04
 4.1940999e+00   9.8000760e+03
 4.1987801e+00   1.0005820e+04
 4.2034602e+00   9.8437840e+03
 4.2081399e+00   9.8515494e+03
 4.2128201e+00   9.7108922e+03
 4.2175002e+00   9.8308240e+03
 4.2221799e+00   9.5896086e+03
 4.2268600e+00   9.5109361e+03
 4.2315402e+00   9.6406179e+03
 4.2362199e+00   9.3544440e+03
 4.2409000e+00   9.5100149e+03
 4.2455802e+00   9.3836497e+03
 4.2502599e+00   9.3417046e+03
 4.2549400e+00   9.3066568e+03
 4.2596202e+00   9.5763272e+03
 4.2642999e+00   9.4521822e+03
 4.2689800e+00   9.7231161e+03
 4.2736602e+00   9.6993548e+03
 4.2783399e+00   9.9846480e+03
 4.2830200e+00   9.9517810e+03
 4.2877002e+00   1.0275294e+04
 4.2923799e+00   1.0247187e+04
 4.2970600e+00   1.0546118e+04
 4.3017402e+00   1.0316225e+04
 4.3064198e+00   1.0433267e+04
 4.3111000e+00   1.0137348e+04
 4.3157802e+00   1.0179302e+04
 4.3204598e+00   9.9549951e+03
 4.3251400e+00   9.7580098e+03
 4.3298202e+00   9.6020327e+03
 4.3344998e+00   9.4760444e+03
 4.3391800e+00   9.3059120e+03
 4.3438601e+00   9.2853021e+03
 4.3485398e+00   9.2047645e+03
 4.3532200e+00   9.1015565e+03
 4.3579001e+00   9.0627913e+03
 4.3625798e+00   8.8944629e+03
 4.3672600e+00   8.8451717e+03
 4.3719401e+00   8.7137479e+03
 4.3766198e+00   8.6761879e+03
 4.3813000e+00   8.5641522e+03
 4.3859801e+00   8.4794480e+03
 4.3906598e+00   8.3559107e+03
 4.3953400e+00   8.3521700e+03
 4.4000201e+00   8.1877389e+03
 4.4046998e+00   8.2249465e+03
 4.4093800e+00   8.0778354e+03
 4.4140601e+00   8.0493772e+03
 4.4187398e+00   8.0016944e+03
 4.4234200e+00   7.9793199e+03
 4.4281001e+00   7.8334284e+03
 4.4327798e+00   7.9476394e+03
 4.4374599e+00   7.8002195e+03
 4.4421401e+00   7.8118616e+03
 4.4468198e+00   7.7735380e+03
 4.4514999e+00   7.7031275e+03
 4.4561801e+00   7.7085270e+03
 4.4608598e+00   7.6868551e+03
 4.4655399e+00   7.6387004e+03
 4.4702201e+00   7.6609392e+03
 4.4748998e+00   7.6192632e+03
 4.4795799e+00   7.5760885e+03
 4.4842601e+00   7.6136818e+03
 4.4889398e+00   7.5334178e+03
 4.4936199e+00   7.5322524e+03
 4.4983001e+00   7.4840949e+03
 4.5029802e+00   7.4308014e+03
 4.5076599e+00   7.4106055e+03
 4.5123401e+00   7.3748937e+03
 4.5170202e+00   7.2760313e+03
 4.5216999e+00   7.2998841e+03
 4.5263801e+00   7.2189401e+03
 4.5310602e+00   7.2158948e+03
 4.5357399e+00   7.1954009e+03
 4.5404201e+00   7.1494643e+03
 4.5451002e+00   7.1306511e+03
 4.5497799e+00   7.1249889e+03
 4.5544600e+00   7.0736783e+03
 4.5591402e+00   7.0897474e+03
 4.5638199e+00   7.0598470e+03
 4.5685000e+00   7.0080919e+03
 4.5731802e+00   7.0260785e+03
 4.5778599e+00   6.9982058e+03
 4.5825400e+00   7.0013938e+03
 4.5872202e+00   6.9743803e+03
 4.5918999e+00   6.9500299e+03
 4.5965800e+00   6.9278864e+03
 4.6012602e+00   6.9015148e+03
 4.6059399e+00   6.9035145e+03
 4.6106200e+00   6.8848971e+03
 4.6153002e+00   6.8753243e+03
 4.6199799e+00   6.8350734e+03
 4.6246600e+00   6.8336014e+03
 4.6293402e+00   6.8186038e+03
 4.6340199e+00   6.7969128e+03
 4.6387000e+00   6.8115102e+03
 4.6433802e+00   6.7719674e+03
 4.6480598e+00   6.7656732e+03
 4.6527400e+00   6.7518569e+03
 4.6574202e+00   6.7329287e+03
 4.6620998e+00   6.7513662e+03
 4.6667800e+00   6.7393189e+03
 4.6714602e+00   6.7240538e+03
 4.6761398e+00   6.6998560e+03
 4.6808200e+00   6.6851306e+03
 4.6855001e+00   6.6933958e+03
 4.6901798e+00   6.6830605e+03
 4.6948600e+00   6.6805540e+03
 4.6995401e+00   6.6656988e+03
 4.7042198e+00   6.6890080e+03
 4.7089000e+00   6.6833387e+03
 4.7135801e+00   6.7195409e+03
 4.7182598e+00   6.7308896e+03
 4.7229400e+00   6.7959749e+03
 4.7276201e+00   6.7882411e+03
 4.7322998e+00   6.8506801e+03
 4.7369800e+00   6.8933530e+03
 4.7416601e+00   6.9311074e+03
 4.7463398e+00   6.9498161e+03
 4.7510200e+00   7.0065733e+03
 4.7557001e+00   7.0526731e+03
 4.7603798e+00   7.1091067e+03
 4.7650599e+00   7.1757739e+03
 4.7697401e+00   7.2478816e+03
 4.7744198e+00   7.3659378e+03
 4.7790999e+00   7.4870703e+03
 4.7837801e+00   7.6137042e+03
 4.7884598e+00   7.8102200e+03
 4.7931399e+00   7.9799516e+03
 4.7978201e+00   8.1755849e+03
 4.8024998e+00   8.4089199e+03
 4.8071799e+00   8.6237405e+03
 4.8118601e+00   8.8154871e+03
 4.8165398e+00   8.9916511e+03
 4.8212199e+00   9.1939309e+03
 4.8259001e+00   9.3214911e+03
 4.8305802e+00   9.4430750e+03
 4.8352599e+00   9.4942888e+03
 4.8399401e+00   9.4923925e+03
 4.8446202e+00   9.3395424e+03
 4.8492999e+00   9.1807462e+03
 4.8539801e+00   8.9235573e+03
 4.8586602e+00   8.6457784e+03
 4.8633399e+00   8.3570301e+03
 4.8680201e+00   8.0827307e+03
 4.8727002e+00   7.8286476e+03
 4.8773799e+00   7.6398471e+03
 4.8820601e+00   7.5129154e+03
 4.8867402e+00   7.4052557e+03
 4.8914199e+00   7.3882432e+03
 4.8961000e+00   7.3846107e+03
 4.9007802e+00   7.4128458e+03
 4.9054599e+00   7.4939278e+03
 4.9101400e+00   7.5577995e+03
 4.9148202e+00   7.6283221e+03
 4.9194999e+00   7.7138998e+03
 4.9241800e+00   7.7929690e+03
 4.9288602e+00   7.8895676e+03
 4.9335399e+00   7.9625277e+03
 4.9382200e+00   8.0712570e+03
 4.9429002e+00   8.1733479e+03
 4.9475799e+00   8.3392472e+03
 4.9522600e+00   8.4675717e+03
 4.9569402e+00   8.6511272e+03
 4.9616199e+00   8.8443951e+03
 4.9663000e+00   9.0655392e+03
 4.9709802e+00   9.2739787e+03
 4.9756598e+00   9.4915434e+03
 4.9803400e+00   9.6797379e+03
 4.9850202e+00   9.8011171e+03
 4.9896998e+00   9.8977929e+03
 4.9943800e+00   9.9522686e+03
 4.9990602e+00   9.9074658e+03
 5.0037398e+00   9.7822055e+03
 5.0084200e+00   9.5917859e+03
 5.0131001e+00   9.3375004e+03
 5.0177798e+00   9.0478748e+03
 5.0224600e+00   8.7336080e+03
 5.0271401e+00   8.4159044e+03
 5.0318198e+00   8.1185355e+03
 5.0365000e+00   7.8602519e+03
 5.0411801e+00   7.5932541e+03
 5.0458598e+00   7.3953750e+03
 5.0505400e+00   7.2143651e+03
 5.0552201e+00   7.0856732e+03
 5.0598998e+00   6.9666222e+03
 5.0645800e+00   6.9117873e+03
 5.0692601e+00   6.8722962e+03
 5.0739398e+00   6.8643305e+03
 5.0786200e+00   6.9162077e+03
 5.0833001e+00   7.0297642e+03
 5.0879798e+00   7.0982895e+03
 5.0926600e+00   7.2473687e+03
 5.0973401e+00   7.3706356e+03
 5.1020198e+00   7.7603139e+03
 5.1066999e+00   8.0851699e+03
 5.1113801e+00   8.0723933e+03
 5.1160598e+00   7.9248384e+03
 5.1207399e+00   8.2141178e+03
 5.1254201e+00   8.9087886e+03
 5.1300998e+00   1.0222832e+04
 5.1347799e+00   1.1386089e+04
 5.1394601e+00   1.2887456e+04
 5.1441398e+00   1.3174721e+04
 5.1488199e+00   1.3430587e+04
 5.1535001e+00   1.2317256e+04
 5.1581802e+00   1.1336971e+04
 5.1628599e+00   9.7892131e+03
 5.1675401e+00   8.7596066e+03
 5.1722202e+00   7.8360194e+03
 5.1768999e+00   7.2247934e+03
 5.1815801e+00   6.7829963e+03
 5.1862602e+00   6.7302490e+03
 5.1909399e+00   6.8242671e+03
 5.1956201e+00   6.7174595e+03
 5.2003002e+00   6.6087846e+03
 5.2049799e+00   6.4444139e+03
 5.2096601e+00   6.3892913e+03
 5.2143402e+00   6.3611088e+03
 5.2190199e+00   6.3004043e+03
 5.2237000e+00   6.2516102e+03
 5.2283802e+00   6.1888239e+03
 5.2330599e+00   6.1578366e+03
 5.2377400e+00   6.1443930e+03
 5.2424202e+00   6.1079495e+03
 5.2470999e+00   6.0838808e+03
 5.2517800e+00   6.0767484e+03
 5.2564602e+00   6.0415421e+03
 5.2611399e+00   6.0419644e+03
 5.2658200e+00   6.0194006e+03
 5.2705002e+00   6.0040925e+03
 5.2751799e+00   6.0039005e+03
 5.2798600e+00   5.9924436e+03
 5.2845402e+00   5.9573570e+03
 5.2892199e+00   5.9837481e+03
 5.2939000e+00   5.9586380e+03
 5.2985802e+00   5.9464820e+03
 5.3032598e+00   5.9647922e+03
 5.3079400e+00   5.9532569e+03
 5.3126202e+00   5.9397238e+03
 5.3172998e+00   5.9422669e+03
 5.3219800e+00   5.9310422e+03
 5.3266602e+00   5.9420034e+03
 5.3313398e+00   5.9156463e+03
 5.3360200e+00   5.8950971e+03
 5.3407001e+00   5.9266936e+03
 5.3453798e+00   5.8876414e+03
 5.3500600e+00   5.9063175e+03
 5.3547401e+00   5.9116097e+03
 5.3594198e+00   5.8890526e+03
 5.3641000e+00   5.9101345e+03
 5.3687801e+00   5.8950996e+03
 5.3734598e+00   5.8746299e+03
 5.3781400e+00   5.9178911e+03
 5.3828201e+00   5.8842169e+03
 5.3874998e+00   5.8855255e+03
 5.3921800e+00   5.9147353e+03
 5.3968601e+00   5.9051273e+03
 5.4015398e+00   5.9099037e+03
 5.4062200e+00   5.9247502e+03
 5.4109001e+00   5.9014999e+03
 5.4155798e+00   5.9347661e+03
 5.4202600e+00   5.9319063e+03
 5.4249401e+00   5.9259001e+03
 5.4296198e+00   5.9818368e+03
 5.4342999e+00   5.9724112e+03
 5.4389801e+00   5.9831218e+03
 5.4436598e+00   6.0035368e+03
 5.4483399e+00   5.9890145e+03
 5.4530201e+00   6.0483203e+03
 5.4576998e+00   6.0446593e+03
 5.4623799e+00   6.0635291e+03
 5.4670601e+00   6.1229132e+03
 5.4717398e+00   6.1387566e+03
 5.4764199e+00   6.1891918e+03
 5.4811001e+00   6.2541917e+03
 5.4857798e+00   6.2993023e+03
 5.4904599e+00   6.3895265e+03
 5.4951401e+00   6.4666751e+03
 5.4998202e+00   6.5470477e+03
 5.5044999e+00   6.6914625e+03
 5.5091801e+00   6.8419083e+03
 5.5138602e+00   7.0282598e+03
 5.5185399e+00   7.2708079e+03
 5.5232201e+00   7.5358966e+03
 5.5279002e+00   7.8615019e+03
 5.5325799e+00   8.2704733e+03
 5.5372601e+00   8.6600501e+03
 5.5419402e+00   9.1660515e+03
 5.5466199e+00   9.5634869e+03
 5.5513000e+00   9.9784226e+03
 5.5559802e+00   1.0367322e+04
 5.5606599e+00   1.0596850e+04
 5.5653400e+00   1.0736124e+04
 5.5700202e+00   1.0795481e+04
 5.5746999e+00   1.0731831e+04
 5.5793800e+00   1.0606824e+04
 5.5840602e+00   1.0402593e+04
 5.5887399e+00   1.0151766e+04
 5.5934200e+00   9.9758478e+03
 5.5981002e+00   9.8451505e+03
 5.6027799e+00   9.8366608e+03
 5.6074600e+00   9.1796621e+03
 5.6121402e+00   8.8011909e+03
 5.6168199e+00   8.4402878e+03
 5.6215000e+00   8.1652940e+03
 5.6261802e+00   7.8993455e+03
 5.6308599e+00   7.7272441e+03
 5.6355400e+00   7.5286042e+03
 5.6402202e+00   7.3240694e+03
 5.6448998e+00   7.2272532e+03
 5.6495800e+00   7.0549704e+03
 5.6542602e+00   6.9486471e+03
 5.6589398e+00   6.8456058e+03
 5.6636200e+00   6.7251018e+03
 5.6683002e+00   6.6720700e+03
 5.6729798e+00   6.5642609e+03
 5.6776600e+00   6.4751011e+03
 5.6823401e+00   6.4448817e+03
 5.6870198e+00   6.3789208e+03
 5.6917000e+00   6.3009107e+03
 5.6963801e+00   6.2975510e+03
 5.7010598e+00   6.2251567e+03
 5.7057400e+00   6.2257656e+03
 5.7104201e+00   6.2048275e+03
 5.7150998e+00   6.1542436e+03
 5.7197800e+00   6.1676763e+03
 5.7244601e+00   6.1500707e+03
 5.7291398e+00   6.1311695e+03
 5.7338200e+00   6.1626509e+03
 5.7385001e+00   6.1331972e+03
 5.7431798e+00   6.1377310e+03
 5.7478600e+00   6.1577093e+03
 5.7525401e+00   6.1407515e+03
 5.7572198e+00   6.1986280e+03
 5.7618999e+00   6.1956283e+03
 5.7665801e+00   6.1570912e+03
 5.7712598e+00   6.1982148e+03
 5.7759399e+00   6.1749155e+03
 5.7806201e+00   6.1592939e+03
 5.7852998e+00   6.1719601e+03
 5.7899799e+00   6.1303370e+03
 5.7946601e+00   6.1465352e+03
 5.7993398e+00   6.1250928e+03
 5.8040199e+00   6.1185092e+03
 5.8087001e+00   6.1533672e+03
 5.8133798e+00   6.1263425e+03
 5.8180599e+00   6.1087573e+03
 5.8227401e+00   6.1739817e+03
 5.8274202e+00   6.1502095e+03
 5.8320999e+00   6.1706154e+03
 5.8367801e+00   6.1976313e+03
 5.8414602e+00   6.2050705e+03
 5.8461399e+00   6.2489048e+03
 5.8508201e+00   6.2705142e+03
 5.8555002e+00   6.2850461e+03
 5.8601799e+00   6.3666214e+03
 5.8648601e+00   6.4049733e+03
 5.8695402e+00   6.4394433e+03
 5.8742199e+00   6.5149526e+03
 5.8789001e+00   6.5708627e+03
 5.8835802e+00   6.6868575e+03
 5.8882599e+00   6.7768434e+03
 5.8929400e+00   6.8719955e+03
 5.8976202e+00   7.0167848e+03
 5.9022999e+00   7.1567734e+03
 5.9069800e+00   7.3618405e+03
 5.9116602e+00   7.7018339e+03
 5.9163399e+00   8.0133825e+03
 5.9210200e+00   8.3672197e+03
 5.9257002e+00   8.5711819e+03
 5.9303799e+00   9.1724122e+03
 5.9350600e+00   9.5914518e+03
 5.9397402e+00   1.0064083e+04
 5.9444199e+00   1.0223382e+04
 5.9491000e+00   1.0316756e+04
 5.9537802e+00   1.0149629e+04
 5.9584599e+00   1.0002124e+04
 5.9631400e+00   9.8178687e+03
 5.9678202e+00   9.7823241e+03
 5.9724998e+00   9.7095591e+03
 5.9771800e+00   9.5736463e+03
 5.9818602e+00   9.4333585e+03
 5.9865398e+00   9.3083986e+03
 5.9912200e+00   9.1815807e+03
 5.9959002e+00   8.9983272e+03
 6.0005798e+00   8.8205306e+03
 6.0052600e+00   8.5769636e+03
 6.0099401e+00   8.3837900e+03
 6.0146198e+00   8.1346786e+03
 6.0193000e+00   7.9052344e+03
 6.0239801e+00   7.7399869e+03
 6.0286598e+00   7.5093860e+03
 6.0333400e+00   7.3185113e+03
 6.0380201e+00   7.2038648e+03
 6.0426998e+00   7.0080902e+03
 6.0473800e+00   6.8672839e+03
 6.0520601e+00   6.7655598e+03
 6.0567398e+00   6.6065791e+03
 6.0614200e+00   6.5580601e+03
 6.0661001e+00   6.4604113e+03
 6.0707798e+00   6.3743995e+03
 6.0754600e+00   6.3346432e+03
 6.0801401e+00   6.2744724e+03
 6.0848198e+00   6.2171585e+03
 6.0895000e+00   6.1977853e+03
 6.0941801e+00   6.1277141e+03
 6.0988598e+00   6.1255741e+03
 6.1035399e+00   6.0994334e+03
 6.1082201e+00   6.0514524e+03
 6.1128998e+00   6.0567442e+03
 6.1175799e+00   6.0210137e+03
 6.1222601e+00   6.0092194e+03
 6.1269398e+00   5.9960286e+03
 6.1316199e+00   5.9888382e+03
 6.1363001e+00   5.9882185e+03
 6.1409798e+00   5.9638906e+03
 6.1456599e+00   5.9627002e+03
 6.1503401e+00   5.9657215e+03
 6.1550202e+00   5.9532945e+03
 6.1596999e+00   5.9629170e+03
 6.1643801e+00   5.9528727e+03
 6.1690602e+00   5.9408283e+03
 6.1737399e+00   5.9263427e+03
 6.1784201e+00   5.9434718e+03
 6.1831002e+00   5.9200156e+03
 6.1877799e+00   5.9385465e+03
 6.1924601e+00   5.9222815e+03
 6.1971402e+00   5.9311665e+03
 6.2018199e+00   5.9280590e+03
 6.2065001e+00   5.9468040e+03
 6.2111802e+00   5.9206392e+03
 6.2158599e+00   5.9456105e+03
 6.2205400e+00   5.9243162e+03
 6.2252202e+00   5.9413996e+03
 6.2298999e+00   5.9662955e+03
 6.2345800e+00   5.9211915e+03
 6.2392602e+00   5.9360655e+03
 6.2439399e+00   5.9339012e+03
 6.2486200e+00   5.9360666e+03
 6.2533002e+00   5.9297605e+03
 6.2579799e+00   5.9480277e+03
 6.2626600e+00   5.9511832e+03
 6.2673402e+00   5.9549418e+03
 6.2720199e+00   5.9379741e+03
 6.2767000e+00   5.9615224e+03
 6.2813802e+00   5.9480308e+03
 6.2860599e+00   5.9353687e+03
 6.2907400e+00   5.9576295e+03
 6.2954202e+00   5.9691574e+03
 6.3000998e+00   5.9492728e+03
 6.3047800e+00   5.9949914e+03
 6.3094602e+00   5.9728817e+03
 6.3141398e+00   5.9852783e+03
 6.3188200e+00   5.9859228e+03
 6.3235002e+00   5.9856777e+03
 6.3281798e+00   6.0257562e+03
 6.3328600e+00   6.0073257e+03
 6.3375401e+00   6.0286208e+03
 6.3422198e+00   6.0261719e+03
 6.3469000e+00   6.0128755e+03
 6.3515801e+00   6.0045852e+03
 6.3562598e+00   6.0545581e+03
 6.3609400e+00   6.0116729e+03
 6.3656201e+00   6.0616287e+03
 6.3702998e+00   6.0210102e+03
 6.3749800e+00   6.0469501e+03
 6.3796601e+00   6.0362926e+03
 6.3843398e+00   6.0675123e+03
 6.3890200e+00   6.0626956e+03
 6.3937001e+00   6.0905316e+03
 6.3983798e+00   6.0553147e+03
 6.4030600e+00   6.1024840e+03
 6.4077401e+00   6.0968455e+03
 6.4124198e+00   6.1076851e+03
 6.4171000e+00   6.1307933e+03
 6.4217801e+00   6.1172168e+03
 6.4264598e+00   6.1439499e+03
 6.4311399e+00   6.1620785e+03
 6.4358201e+00   6.1746692e+03
 6.4404998e+00   6.1827966e+03
 6.4451799e+00   6.2269686e+03
 6.4498601e+00   6.1733501e+03
 6.4545398e+00   6.2325557e+03
 6.4592199e+00   6.1942848e+03
 6.4639001e+00   6.2534844e+03
 6.4685798e+00   6.2512298e+03
 6.4732599e+00   6.2607101e+03
 6.4779401e+00   6.2456977e+03
 6.4826198e+00   6.2975758e+03
 6.4872999e+00   6.2440087e+03
 6.4919801e+00   6.3349763e+03
 6.4966602e+00   6.3151009e+03
 6.5013399e+00   6.3075886e+03
 6.5060201e+00   6.3622215e+03
 6.5107002e+00   6.3318565e+03
 6.5153799e+00   6.3818627e+03
 6.5200601e+00   6.3685727e+03
 6.5247402e+00   6.4272783e+03
 6.5294199e+00   6.3838219e+03
 6.5341001e+00   6.4454901e+03
 6.5387802e+00   6.4064414e+03
 6.5434599e+00   6.4821700e+03
 6.5481400e+00   6.4422566e+03
 6.5528202e+00   6.5406344e+03
 6.5574999e+00   6.4775274e+03
 6.5621800e+00   6.5382343e+03
 6.5668602e+00   6.5055287e+03
 6.5715399e+00   6.6301616e+03
 6.5762200e+00   6.5199400e+03
 6.5809002e+00   6.6552715e+03
 6.5855799e+00   6.5706030e+03
 6.5902600e+00   6.6432459e+03
 6.5949402e+00   6.6466452e+03
 6.5996199e+00   6.6682024e+03
 6.6043000e+00   6.7373226e+03
 6.6089802e+00   6.7085472e+03
 6.6136599e+00   6.7399593e+03
 6.6183400e+00   6.7624564e+03
 6.6230202e+00   6.8044791e+03
 6.6276999e+00   6.7860471e+03
 6.6323800e+00   6.9079145e+03
 6.6370602e+00   6.8306690e+03
 6.6417398e+00   6.9423413e+03
 6.6464200e+00   6.9015181e+03
 6.6511002e+00   7.0015760e+03
 6.6557798e+00   6.9553271e+03
 6.6604600e+00   7.1096263e+03
 6.6651402e+00   7.0021630e+03
 6.6698198e+00   7.1095804e+03
 6.6745000e+00   7.0261555e+03
 6.6791801e+00   7.1511714e+03
 6.6838598e+00   7.1469279e+03
 6.6885400e+00   7.1546282e+03
 6.6932201e+00   7.2160596e+03
 6.6978998e+00   7.1875513e+03
 6.7025800e+00   7.2571899e+03
 6.7072601e+00   7.2671000e+03
 6.7119398e+00   7.3166226e+03
 6.7166200e+00   7.3070704e+03
 6.7213001e+00   7.4325193e+03
 6.7259798e+00   7.3266645e+03
 6.7306600e+00   7.4788579e+03
 6.7353401e+00   7.4721272e+03
 6.7400198e+00   7.6147984e+03
 6.7447000e+00   7.5169505e+03
 6.7493801e+00   7.6332209e+03
 6.7540598e+00   7.5678015e+03
 6.7587399e+00   7.7800872e+03
 6.7634201e+00   7.7276756e+03
 6.7680998e+00   7.8050126e+03
 6.7727799e+00   7.9145443e+03
 6.7774601e+00   7.8294938e+03
 6.7821398e+00   7.9930736e+03
 6.7868199e+00   8.0131760e+03
 6.7915001e+00   8.1449089e+03
 6.7961798e+00   8.1481175e+03
 6.8008599e+00   8.3122363e+03
 6.8055401e+00   8.3040398e+03
 6.8102198e+00   8.5512397e+03
 6.8148999e+00   8.7003726e+03
 6.8195801e+00   8.9288758e+03
 6.8242602e+00   9.0982756e+03
 6.8289399e+00   9.6456209e+03
 6.8336201e+00   1.0171730e+04
 6.8383002e+00   1.1139508e+04
 6.8429799e+00   1.2933881e+04
 6.8476601e+00   1.9446415e+04
 6.8523402e+00   1.8640507e+04
 6.8570199e+00   1.9715957e+04
 6.8617001e+00   2.9422191e+04
 6.8663802e+00   3.3149863e+04
 6.8710599e+00   3.8362359e+04
 6.8757401e+00   3.9580863e+04
 6.8804202e+00   3.4115060e+04
 6.8850999e+00   3.6493899e+04
 6.8897800e+00   2.5396324e+04
 6.8944602e+00   3.0513716e+04
 6.8991399e+00   2.4602997e+04
 6.9038200e+00   1.8492537e+04
 6.9085002e+00   1.3366664e+04
 6.9131799e+00   1.3128443e+04
 6.9178600e+00   1.1663624e+04
 6.9225402e+00   1.1076767e+04
 6.9272199e+00   1.1009434e+04
 6.9319000e+00   1.0501716e+04
 6.9365802e+00   1.0404938e+04
 6.9412599e+00   1.0132352e+04
 6.9459400e+00   1.0000922e+04
 6.9506202e+00   1.0147948e+04
 6.9552999e+00   9.9002175e+03
 6.9599800e+00   9.8992002e+03
 6.9646602e+00   9.6074303e+03
 6.9693398e+00   9.5171825e+03
 6.9740200e+00   9.4651946e+03
 6.9787002e+00   9.5216864e+03
 6.9833798e+00   9.2219764e+03
 6.9880600e+00   9.3491016e+03
 6.9927402e+00   9.0324322e+03
 6.9974198e+00   9.0808536e+03
 7.0021000e+00   8.8511177e+03
 7.0067801e+00   8.9918029e+03
 7.0114598e+00   8.8058663e+03
 7.0161400e+00   8.7711978e+03
 7.0208201e+00   8.6213660e+03
 7.0254998e+00   8.5847582e+03
 7.0301800e+00   8.5161824e+03
 7.0348601e+00   8.4698407e+03
 7.0395398e+00   8.4332287e+03
 7.0442200e+00   8.2426121e+03
 7.0489001e+00   8.2936878e+03
 7.0535798e+00   8.1458475e+03
 7.0582600e+00   8.1949622e+03
 7.0629401e+00   8.1496467e+03
 7.0676198e+00   8.0955148e+03
 7.0723000e+00   7.9669747e+03
 7.0769801e+00   7.9026379e+03
 7.0816598e+00   7.7652321e+03
 7.0863400e+00   7.8417061e+03
 7.0910201e+00   7.5988196e+03
 7.0956998e+00   7.6274552e+03
 7.1003799e+00   7.5263073e+03
 7.1050601e+00   7.4730844e+03
 7.1097398e+00   7.4074658e+03
 7.1144199e+00   7.4065037e+03
 7.1191001e+00   7.3476383e+03
 7.1237798e+00   7.3294884e+03
 7.1284599e+00   7.2896776e+03
 7.1331401e+00   7.2394158e+03
 7.1378198e+00   7.2561078e+03
 7.1424999e+00   7.1987275e+03
 7.1471801e+00   7.2040004e+03
 7.1518602e+00   7.1639854e+03
 7.1565399e+00   7.1494506e+03
 7.1612201e+00   7.1212210e+03
 7.1659002e+00   7.1315792e+03
 7.1705799e+00   7.0469590e+03
 7.1752601e+00   7.1349722e+03
 7.1799402e+00   7.0181550e+03
 7.1846199e+00   7.0637380e+03
 7.1893001e+00   7.0204021e+03
 7.1939802e+00   7.0425675e+03
 7.1986599e+00   7.0014315e+03
 7.2033401e+00   6.9954373e+03
 7.2080202e+00   6.9579769e+03
 7.2126999e+00   6.9873877e+03
 7.2173800e+00   6.9471344e+03
 7.2220602e+00   6.9448191e+03
 7.2267399e+00   6.9463440e+03
 7.2314200e+00   6.9208941e+03
 7.2361002e+00   6.9422720e+03
 7.2407799e+00   6.9285447e+03
 7.2454600e+00   6.9360667e+03
 7.2501402e+00   6.9513500e+03
 7.2548199e+00   6.9505660e+03
 7.2595000e+00   6.9090865e+03
 7.2641802e+00   6.9836479e+03
 7.2688599e+00   6.9073779e+03
 7.2735400e+00   6.9613102e+03
 7.2782202e+00   6.9101321e+03
 7.2828999e+00   6.9527646e+03
 7.2875800e+00   6.9115302e+03
 7.2922602e+00   6.9003771e+03
 7.2969398e+00   6.8768712e+03
 7.3016200e+00   6.9036248e+03
 7.3063002e+00   6.8837295e+03
 7.3109798e+00   6.8818975e+03
 7.3156600e+00   6.8975683e+03
 7.3203402e+00   6.9001011e+03
 7.3250198e+00   6.9152476e+03
 7.3297000e+00   6.8941337e+03
 7.3343801e+00   6.9151601e+03
 7.3390598e+00   6.9184480e+03
 7.3437400e+00   6.9405704e+03
 7.3484201e+00   6.9471231e+03
 7.3530998e+00   6.9578542e+03
 7.3577800e+00   6.9465807e+03
 7.3624601e+00   6.9769024e+03
 7.3671398e+00   6.9661094e+03
 7.3718200e+00   7.0068021e+03
 7.3765001e+00   6.9902104e+03
 7.3811798e+00   7.0098646e+03
 7.3858600e+00   7.0099465e+03
 7.3905401e+00   7.0264197e+03
 7.3952198e+00   7.0313467e+03
 7.3999000e+00   7.0545192e+03
 7.4045801e+00   7.0735241e+03
 7.4092598e+00   7.0765477e+03
 7.4139400e+00   7.1174231e+03
 7.4186201e+00   7.1310997e+03
 7.4232998e+00   7.1591606e+03
 7.4279799e+00   7.1966653e+03
 7.4326601e+00   7.2303359e+03
 7.4373398e+00   7.2585506e+03
 7.4420199e+00   7.2887977e+03
 7.4467001e+00   7.3056186e+03
 7.4513798e+00   7.3424757e+03
 7.4560599e+00   7.3827196e+03
 7.4607401e+00   7.3848002e+03
 7.4654198e+00   7.4061064e+03
 7.4700999e+00   7.3998709e+03
 7.4747801e+00   7.4282816e+03
 7.4794598e+00   7.4113812e+03
 7.4841399e+00   7.4105381e+03
 7.4888201e+00   7.4048190e+03
 7.4935002e+00   7.3849602e+03
 7.4981799e+00   7.3679391e+03
 7.5028601e+00   7.3725645e+03
 7.5075402e+00   7.3537892e+03
 7.5122199e+00   7.3533212e+03
 7.5169001e+00   7.3272187e+03
 7.5215802e+00   7.3147025e+03
 7.5262599e+00   7.2951108e+03
 7.5309401e+00   7.2743536e+03
 7.5356202e+00   7.2672264e+03
 7.5402999e+00   7.2601423e+03
 7.5449800e+00   7.2574798e+03
 7.5496602e+00   7.2313609e+03
 7.5543399e+00   7.2344147e+03
 7.5590200e+00   7.2104492e+03
 7.5637002e+00   7.2292437e+03
 7.5683799e+00   7.1851991e+03
 7.5730600e+00   7.1904808e+03
 7.5777402e+00   7.1732648e+03
 7.5824199e+00   7.1636931e+03
 7.5871000e+00   7.1218349e+03
 7.5917802e+00   7.1283123e+03
 7.5964599e+00   7.0963111e+03
 7.6011400e+00   7.0653826e+03
 7.6058202e+00   7.0192775e+03
 7.6104999e+00   6.9711434e+03
 7.6151800e+00   6.9449531e+03
 7.6198602e+00   6.8531208e+03
 7.6245399e+00   6.8227148e+03
 7.6292200e+00   6.7407317e+03
 7.6339002e+00   6.7133778e+03
 7.6385798e+00   6.6489930e+03
 7.6432600e+00   6.6358166e+03
 7.6479402e+00   6.5626210e+03
 7.6526198e+00   6.5743217e+03
 7.6573000e+00   6.5070621e+03
 7.6619802e+00   6.5094229e+03
 7.6666598e+00   6.4584687e+03
 7.6713400e+00   6.4916608e+03
 7.6760201e+00   6.4289338e+03
 7.6806998e+00   6.4630402e+03
 7.6853800e+00   6.4091464e+03
 7.6900601e+00   6.4378218e+03
 7.6947398e+00   6.4207378e+03
 7.6994200e+00   6.4092888e+03
 7.7041001e+00   6.4183600e+03
 7.7087798e+00   6.3996082e+03
 7.7134600e+00   6.4001132e+03
 7.7181401e+00   6.3803008e+03
 7.7228198e+00   6.4251321e+03
 7.7275000e+00   6.3822348e+03
 7.7321801e+00   6.4017545e+03
 7.7368598e+00   6.3600133e+03
 7.7415400e+00   6.4186753e+03
 7.7462201e+00   6.3667242e+03
 7.7508998e+00   6.4266738e+03
 7.7555799e+00   6.3565691e+03
 7.7602601e+00   6.4445031e+03
 7.7649398e+00   6.3528869e+03
 7.7696199e+00   6.4215934e+03
 7.7743001e+00   6.3926901e+03
 7.7789798e+00   6.4187140e+03
 7.7836599e+00   6.4226137e+03
 7.7883401e+00   6.4033795e+03
 7.7930198e+00   6.4456414e+03
 7.7976999e+00   6.4222829e+03
 7.8023801e+00   6.4397169e+03
 7.8070598e+00   6.4288805e+03
 7.8117399e+00   6.4491239e+03
 7.8164201e+00   6.3991778e+03
 7.8211002e+00   6.4937117e+03
 7.8257799e+00   6.4104318e+03
 7.8304601e+00   6.5179165e+03
 7.8351402e+00   6.4631587e+03
 7.8398199e+00   6.5324880e+03
 7.8445001e+00   6.4419577e+03
 7.8491802e+00   6.5508330e+03
 7.8538599e+00   6.4790868e+03
 7.8585401e+00   6.6260007e+03
 7.8632202e+00   6.5190238e+03
 7.8678999e+00   6.5862638e+03
 7.8725801e+00   6.5992920e+03
 7.8772602e+00   6.6399182e+03
 7.8819399e+00   6.6896152e+03
 7.8866200e+00   6.7313660e+03
 7.8913002e+00   6.8420316e+03
 7.8959799e+00   6.7104413e+03
 7.9006600e+00   7.1011281e+03
 7.9053402e+00   6.8868461e+03
 7.9100199e+00   7.9735497e+03
 7.9147000e+00   7.6543268e+03
 7.9193802e+00   9.6845895e+03
 7.9240599e+00   8.2386438e+03
 7.9287400e+00   1.6292061e+04
 7.9334202e+00   1.0877704e+04
 7.9380999e+00   2.4855222e+04
 7.9427800e+00   2.0798351e+04
 7.9474602e+00   2.4806362e+04
 7.9521399e+00   1.4205863e+04
 7.9568200e+00   2.3485964e+04
 7.9615002e+00   1.3854171e+04
 7.9661798e+00   1.3401129e+04
 7.9708600e+00   1.0309978e+04
 7.9755402e+00   8.0383024e+03
 7.9802198e+00   7.7773868e+03
 7.9849000e+00   7.0826663e+03
 7.9895802e+00   7.0364996e+03
 7.9942598e+00   6.7272994e+03
 7.9989400e+00   6.7002925e+03
 8.0036201e+00   6.4862026e+03
 8.0082998e+00   6.5360882e+03
 8.0129805e+00   6.4107245e+03
 8.0176601e+00   6.5158216e+03
 8.0223398e+00   6.3361062e+03
 8.0270205e+00   6.3993954e+03
 8.0317001e+00   6.2614617e+03
 8.0363798e+00   6.3554236e+03
 8.0410604e+00   6.2928714e+03
 8.0457401e+00   6.2911875e+03
 8.0504198e+00   6.2502388e+03
 8.0551004e+00   6.2041373e+03
 8.0597801e+00   6.2405084e+03
 8.0644598e+00   6.1776903e+03
 8.0691404e+00   6.2812891e+03
 8.0738201e+00   6.2041615e+03
 8.0784998e+00   6.2575065e+03
 8.0831804e+00   6.1986508e+03
 8.0878601e+00   6.2854802e+03
 8.0925398e+00   6.2260160e+03
 8.0972204e+00   6.3375579e+03
 8.1019001e+00   6.2373882e+03
 8.1065798e+00   6.3307120e+03
 8.1112604e+00   6.2538399e+03
 8.1159401e+00   6.3391892e+03
 8.1206198e+00   6.2986169e+03
 8.1253004e+00   6.3132447e+03
 8.1299801e+00   6.2956961e+03
 8.1346598e+00   6.2855626e+03
 8.1393404e+00   6.2756276e+03
 8.1440201e+00   6.2540419e+03
 8.1486998e+00   6.3159088e+03
 8.1533804e+00   6.2435551e+03
 8.1580601e+00   6.2960335e+03
 8.1627398e+00   6.2477382e+03
 8.1674204e+00   6.3288697e+03
 8.1721001e+00   6.2717501e+03
 8.1767797e+00   6.3557494e+03
 8.1814604e+00   6.3072480e+03
 8.1861401e+00   6.3953344e+03
 8.1908197e+00   6.3830110e+03
 8.1955004e+00   6.4741935e+03
 8.2001801e+00   6.5035954e+03
 8.2048597e+00   6.5784414e+03
 8.2095404e+00   6.6343497e+03
 8.2142200e+00   6.7086493e+03
 8.2188997e+00   6.8100222e+03
 8.2235804e+00   6.8718519e+03
 8.2282600e+00   6.9826241e+03
 8.2329397e+00   7.0420602e+03
 8.2376204e+00   7.1547377e+03
 8.2423000e+00   7.2000677e+03
 8.2469797e+00   7.3095580e+03
 8.2516603e+00   7.3439393e+03
 8.2563400e+00   7.4559180e+03
 8.2610197e+00   7.4815666e+03
 8.2657003e+00   7.5661210e+03
 8.2703800e+00   7.5928634e+03
 8.2750597e+00   7.6694905e+03
 8.2797403e+00   7.6775054e+03
 8.2844200e+00   7.7215215e+03
 8.2890997e+00   7.7101090e+03
 8.2937803e+00   7.6885980e+03
 8.2984600e+00   7.6608749e+03
 8.3031397e+00   7.5743786e+03
 8.3078203e+00   7.4904152e+03
 8.3125000e+00   7.3457697e+03
 8.3171797e+00   7.2110167e+03
 8.3218603e+00   7.0180850e+03
 8.3265400e+00   6.9038981e+03
 8.3312197e+00   6.7260756e+03
 8.3359003e+00   6.5914092e+03
 8.3405800e+00   6.4155498e+03
 8.3452597e+00   6.3207541e+03
 8.3499403e+00   6.2022286e+03
 8.3546200e+00   6.1718861e+03
 8.3592997e+00   6.0858599e+03
 8.3639803e+00   6.0805536e+03
 8.3686600e+00   6.1189055e+03
 8.3733397e+00   6.2508786e+03
 8.3780203e+00   6.4767814e+03
 8.3827000e+00   6.8975544e+03
 8.3873796e+00   7.3702628e+03
 8.3920603e+00   8.1233534e+03
 8.3967400e+00   8.9814515e+03
 8.4014196e+00   9.6923369e+03
 8.4061003e+00   1.0326792e+04
 8.4107800e+00   1.0158748e+04
 8.4154596e+00   9.5728603e+03
 8.4201403e+00   8.9825649e+03
 8.4248199e+00   8.0602994e+03
 8.4294996e+00   7.3346442e+03
 8.4341803e+00   6.8034639e+03
 8.4388599e+00   6.4349052e+03
 8.4435396e+00   6.2183764e+03
 8.4482203e+00   6.0515015e+03
 8.4528999e+00   5.9836437e+03
 8.4575796e+00   5.9663870e+03
 8.4622602e+00   5.9341847e+03
 8.4669399e+00   5.9562466e+03
 8.4716196e+00   5.9748790e+03
 8.4763002e+00   5.9963791e+03
 8.4809799e+00   6.0237866e+03
 8.4856596e+00   6.0717996e+03
 8.4903402e+00   6.0850948e+03
 8.4950199e+00   6.1526422e+03
 8.4996996e+00   6.1899041e+03
 8.5043802e+00   6.2432510e+03
 8.5090599e+00   6.2800704e+03
 8.5137396e+00   6.3791742e+03
 8.5184202e+00   6.3969693e+03
 8.5230999e+00   6.5015383e+03
 8.5277796e+00   6.5568324e+03
 8.5324602e+00   6.6213561e+03
 8.5371399e+00   6.6931636e+03
 8.5418196e+00   6.7612844e+03
 8.5465002e+00   6.8256876e+03
 8.5511799e+00   6.8987815e+03
 8.5558596e+00   6.9670427e+03
 8.5605402e+00   6.9881997e+03
 8.5652199e+00   7.0625022e+03
 8.5698996e+00   7.0494240e+03
 8.5745802e+00   7.0952455e+03
 8.5792599e+00   7.0738432e+03
 8.5839396e+00   7.0980482e+03
 8.5886202e+00   7.0624154e+03
 8.5932999e+00   7.0451255e+03
 8.5979795e+00   6.9787154e+03
 8.6026602e+00   6.9191258e+03
 8.6073399e+00   6.8637180e+03
 8.6120195e+00   6.7836173e+03
 8.6167002e+00   6.7060213e+03
 8.6213799e+00   6.6027949e+03
 8.6260595e+00   6.5508708e+03
 8.6307402e+00   6.4498144e+03
 8.6354198e+00   6.3794911e+03
 8.6400995e+00   6.3104662e+03
 8.6447802e+00   6.2266258e+03
 8.6494598e+00   6.1535897e+03
 8.6541405e+00   6.0974355e+03
 8.6588202e+00   6.0285531e+03
 8.6634998e+00   5.9773348e+03
 8.6681805e+00   5.9217422e+03
 8.6728601e+00   5.8734486e+03
 8.6775398e+00   5.8414180e+03
 8.6822205e+00   5.7892469e+03
 8.6869001e+00   5.7609454e+03
 8.6915798e+00   5.7215575e+03
 8.6962605e+00   5.6899865e+03
 8.7009401e+00   5.6728219e+03
 8.7056198e+00   5.6528043e+03
 8.7103004e+00   5.6184477e+03
 8.7149801e+00   5.6155832e+03
 8.7196598e+00   5.5939570e+03
 8.7243404e+00   5.5605025e+03
 8.7290201e+00   5.5554439e+03
 8.7336998e+00   5.5326078e+03
 8.7383804e+00   5.5231800e+03
 8.7430601e+00   5.5228727e+03
 8.7477398e+00   5.4843708e+03
 8.7524204e+00   5.4906169e+03
 8.7571001e+00   5.4707113e+03
 8.7617798e+00   5.4580929e+03
 8.7664604e+00   5.4523781e+03
 8.7711401e+00   5.4223822e+03
 8.7758198e+00   5.3988443e+03
 8.7805004e+00   5.4221126e+03
 8.7851801e+00   5.3988835e+03
 8.7898598e+00   5.3877836e+03
 8.7945404e+00   5.4003831e+03
 8.7992201e+00   5.3529937e+03
 8.8038998e+00   5.3760364e+03
 8.8085804e+00   5.3622323e+03
 8.8132601e+00   5.3604761e+03
 8.8179398e+00   5.3595426e+03
 8.8226204e+00   5.3581115e+03
 8.8273001e+00   5.3466460e+03
 8.8319798e+00   5.4143795e+03
 8.8366604e+00   5.4011125e+03
 8.8413401e+00   5.5497608e+03
 8.8460197e+00   5.7331192e+03
 8.8507004e+00   6.0141252e+03
 8.8553801e+00   6.1507442e+03
 8.8600597e+00   6.7585592e+03
 8.8647404e+00   6.2039899e+03
 8.8694201e+00   7.1516842e+03
 8.8740997e+00   6.6978820e+03
 8.8787804e+00   6.0270465e+03
 8.8834600e+00   6.5957132e+03
 8.8881397e+00   5.8424518e+03
 8.8928204e+00   5.5204936e+03
 8.8975000e+00   5.4870436e+03
 8.9021797e+00   5.2722196e+03
 8.9068604e+00   5.2077464e+03
 8.9115400e+00   5.1810254e+03
 8.9162197e+00   5.1460196e+03
 8.9209003e+00   5.1305614e+03
 8.9255800e+00   5.1253115e+03
 8.9302597e+00   5.1067517e+03
 8.9349403e+00   5.0999967e+03
 8.9396200e+00   5.0769867e+03
 8.9442997e+00   5.0934830e+03
 8.9489803e+00   5.0724759e+03
 8.9536600e+00   5.0860214e+03
 8.9583397e+00   5.0652523e+03
 8.9630203e+00   5.0847307e+03
 8.9677000e+00   5.0685083e+03
 8.9723797e+00   5.0715798e+03
 8.9770603e+00   5.0572824e+03
 8.9817400e+00   5.0779270e+03
 8.9864197e+00   5.0623752e+03
 8.9911003e+00   5.0637992e+03
 8.9957800e+00   5.0594116e+03
 9.0004597e+00   5.0591166e+03
 9.0051403e+00   5.0528048e+03
 9.0098200e+00   5.0547692e+03
 9.0144997e+00   5.0506482e+03
 9.0191803e+00   5.0391016e+03
 9.0238600e+00   5.0459236e+03
 9.0285397e+00   5.0229820e+03
 9.0332203e+00   5.0225916e+03
 9.0379000e+00   5.0202329e+03
 9.0425797e+00   5.0169230e+03
 9.0472603e+00   5.0104616e+03
 9.0519400e+00   5.0095605e+03
 9.0566196e+00   5.0048315e+03
 9.0613003e+00   5.0051043e+03
 9.0659800e+00   5.0037906e+03
 9.0706596e+00   4.9958126e+03
 9.0753403e+00   4.9981054e+03
 9.0800200e+00   4.9954269e+03
 9.0846996e+00   4.9994617e+03
 9.0893803e+00   5.0003312e+03
 9.0940599e+00   5.0004159e+03
 9.0987396e+00   5.0006954e+03
 9.1034203e+00   5.0042405e+03
 9.1080999e+00   5.0095838e+03
 9.1127796e+00   5.0070866e+03
 9.1174603e+00   5.0274697e+03
 9.1221399e+00   5.0257633e+03
 9.1268196e+00   5.0285673e+03
 9.1315002e+00   5.0398459e+03
 9.1361799e+00   5.0327470e+03
 9.1408596e+00   5.0429742e+03
 9.1455402e+00   5.0398086e+03
 9.1502199e+00   5.0621424e+03
 9.1548996e+00   5.0619934e+03
 9.1595802e+00   5.0815840e+03
 9.1642599e+00   5.0886306e+03
 9.1689396e+00   5.0967330e+03
 9.1736202e+00   5.1086166e+03
 9.1782999e+00   5.1191097e+03
 9.1829796e+00   5.1274799e+03
 9.1876602e+00   5.1525661e+03
 9.1923399e+00   5.1733753e+03
 9.1970196e+00   5.1759007e+03
 9.2017002e+00   5.2102586e+03
 9.2063799e+00   5.2043064e+03
 9.2110596e+00   5.2257777e+03
 9.2157402e+00   5.2463577e+03
 9.2204199e+00   5.2575558e+03
 9.2250996e+00   5.2791487e+03
 9.2297802e+00   5.2919688e+03
 9.2344599e+00   5.3145362e+03
 9.2391396e+00   5.3366663e+03
 9.2438202e+00   5.3599068e+03
 9.2484999e+00   5.3760460e+03
 9.2531796e+00   5.3895390e+03
 9.2578602e+00   5.4254140e+03
 9.2625399e+00   5.4421161e+03
 9.2672195e+00   5.4717565e+03
 9.2719002e+00   5.4934231e+03
 9.2765799e+00   5.5372852e+03
 9.2812595e+00   5.5542361e+03
 9.2859402e+00   5.5652365e+03
 9.2906199e+00   5.5945366e+03
 9.2952995e+00   5.6151503e+03
 9.2999802e+00   5.6449794e+03
 9.3046598e+00   5.6640108e+03
 9.3093395e+00   5.6760555e+03
 9.3140202e+00   5.6944927e+03
 9.3186998e+00   5.7071672e+03
 9.3233805e+00   5.7238594e+03
 9.3280602e+00   5.7347647e+03
 9.3327398e+00   5.7419149e+03
 9.3374205e+00   5.7412154e+03
 9.3421001e+00   5.7456801e+03
 9.3467798e+00   5.7357700e+03
 9.3514605e+00   5.7335291e+03
 9.3561401e+00   5.7101444e+03
 9.3608198e+00   5.6969693e+03
 9.3655005e+00   5.6858480e+03
 9.3701801e+00   5.6473103e+03
 9.3748598e+00   5.6145983e+03
 9.3795404e+00   5.5874256e+03
 9.3842201e+00   5.5526017e+03
 9.3888998e+00   5.5347745e+03
 9.3935804e+00   5.4858050e+03
 9.3982601e+00   5.4517565e+03
 9.4029398e+00   5.4173130e+03
 9.4076204e+00   5.3783375e+03
 9.4123001e+00   5.3550400e+03
 9.4169798e+00   5.3259706e+03
 9.4216604e+00   5.3035055e+03
 9.4263401e+00   5.2837039e+03
 9.4310198e+00   5.2645349e+03
 9.4357004e+00   5.2363852e+03
 9.4403801e+00   5.2222152e+03
 9.4450598e+00   5.2074458e+03
 9.4497404e+00   5.2011023e+03
 9.4544201e+00   5.1965862e+03
 9.4590998e+00   5.1799921e+03
 9.4637804e+00   5.1799488e+03
 9.4684601e+00   5.1783354e+03
 9.4731398e+00   5.1943616e+03
 9.4778204e+00   5.1879410e+03
 9.4825001e+00   5.1996596e+03
 9.4871798e+00   5.1854519e+03
 9.4918604e+00   5.2130958e+03
 9.4965401e+00   5.2020231e+03
 9.5012197e+00   5.2156853e+03
 9.5059004e+00   5.2052693e+03
 9.5105801e+00   5.2104859e+03
 9.5152597e+00   5.2174034e+03
 9.5199404e+00   5.2165683e+03
 9.5246201e+00   5.2138856e+03
 9.5292997e+00   5.2277854e+03
 9.5339804e+00   5.2201309e+03
 9.5386600e+00   5.2328462e+03
 9.5433397e+00   5.2363036e+03
 9.5480204e+00   5.2443750e+03
 9.5527000e+00   5.2607879e+03
 9.5573797e+00   5.2686079e+03
 9.5620604e+00   5.2743654e+03
 9.5667400e+00   5.2872464e+03
 9.5714197e+00   5.2943136e+03
 9.5761003e+00   5.3111053e+03
 9.5807800e+00   5.3228820e+03
 9.5854597e+00   5.3302705e+03
 9.5901403e+00   5.3433078e+03
 9.5948200e+00   5.3606389e+03
 9.5994997e+00   5.3640612e+03
 9.6041803e+00   5.3887686e+03
 9.6088600e+00   5.3983787e+03
 9.6135397e+00   5.4151643e+03
 9.6182203e+00   5.4213080e+03
 9.6229000e+00   5.4231811e+03
 9.6275797e+00   5.4324748e+03
 9.6322603e+00   5.4240316e+03
 9.6369400e+00   5.4279990e+03
 9.6416197e+00   5.4324583e+03
 9.6463003e+00   5.4373280e+03
 9.6509800e+00   5.4449491e+03
 9.6556597e+00   5.4508046e+03
 9.6603403e+00   5.4646855e+03
 9.6650200e+00   5.4740002e+03
 9.6696997e+00   5.4940247e+03
 9.6743803e+00   5.5198614e+03
 9.6790600e+00   5.5463648e+03
 9.6837397e+00   5.5724037e+03
 9.6884203e+00   5.6680969e+03
 9.6931000e+00   5.6772447e+03
 9.6977797e+00   5.7477187e+03
 9.7024603e+00   6.2018249e+03
 9.7071400e+00   6.3093725e+03
 9.7118196e+00   6.1976286e+03
 9.7165003e+00   6.6352165e+03
 9.7211800e+00   6.2039092e+03
 9.7258596e+00   6.1930945e+03
 9.7305403e+00   5.8418060e+03
 9.7352200e+00   5.6895062e+03
 9.7398996e+00   5.6097255e+03
 9.7445803e+00   5.4461046e+03
 9.7492599e+00   5.3659991e+03
 9.7539396e+00   5.3432987e+03
 9.7586203e+00   5.2611498e+03
 9.7632999e+00   5.2315794e+03
 9.7679796e+00   5.2243796e+03
 9.7726603e+00   5.2086729e+03
 9.7773399e+00   5.2101258e+03
 9.7820196e+00   5.2011918e+03
 9.7867002e+00   5.2182025e+03
 9.7913799e+00   5.2360010e+03
 9.7960596e+00   5.2579498e+03
 9.8007402e+00   5.2662447e+03
 9.8054199e+00   5.3289350e+03
 9.8100996e+00   5.3886862e+03
 9.8147802e+00   5.4649543e+03
 9.8194599e+00   5.5977713e+03
 9.8241396e+00   5.7468345e+03
 9.8288202e+00   5.8893852e+03
 9.8334999e+00   6.5014218e+03
 9.8381796e+00   7.0046607e+03
 9.8428602e+00   7.7900749e+03
 9.8475399e+00   8.8191870e+03
 9.8522196e+00   9.6885055e+03
 9.8569002e+00   1.0927263e+04
 9.8615799e+00   1.1480748e+04
 9.8662596e+00   1.1627743e+04
 9.8709402e+00   1.0863258e+04
 9.8756199e+00   1.0000406e+04
 9.8802996e+00   8.8242703e+03
 9.8849802e+00   7.6452947e+03
 9.8896599e+00   6.9719089e+03
 9.8943396e+00   6.5613264e+03
 9.8990202e+00   6.1513863e+03
 9.9036999e+00   5.8734522e+03
 9.9083796e+00   5.6948591e+03
 9.9130602e+00   5.5803943e+03
 9.9177399e+00   5.5181388e+03
 9.9224195e+00   5.4702889e+03
 9.9271002e+00   5.4563026e+03
 9.9317799e+00   5.4276187e+03
 9.9364595e+00   5.4195168e+03
 9.9411402e+00   5.4075827e+03
 9.9458199e+00   5.4056920e+03
 9.9504995e+00   5.4037613e+03
 9.9551802e+00   5.4084954e+03
 9.9598598e+00   5.4054720e+03
 9.9645395e+00   5.3994551e+03
 9.9692202e+00   5.3940043e+03
 9.9738998e+00   5.4080052e+03
 9.9785805e+00   5.4054114e+03
 9.9832602e+00   5.4033392e+03
 9.9879398e+00   5.4161962e+03
 9.9926205e+00   5.4131834e+03
 9.9973001e+00   5.4168354e+03
 1.0001980e+01   5.4105061e+03
 1.0006660e+01   5.4031071e+03
 1.0011340e+01   5.3771910e+03
 1.0016020e+01   5.3731258e+03
 1.0020700e+01   5.3683639e+03
 1.0025380e+01   5.3558451e+03
 1.0030060e+01   5.3356521e+03
 1.0034740e+01   5.3398553e+03
 1.0039420e+01   5.3110313e+03
 1.0044100e+01   5.2985735e+03
 1.0048780e+01   5.2946716e+03
 1.0053460e+01   5.2794061e+03
 1.0058140e+01   5.2807389e+03
 1.0062820e+01   5.2655250e+03
 1.0067500e+01   5.2661476e+03
 1.0072180e+01   5.2425135e+03
 1.0076860e+01   5.2519581e+03
 1.0081540e+01   5.2279383e+03
 1.0086220e+01   5.2463628e+03
 1.0090900e+01   5.2348578e+03
 1.0095580e+01   5.2418379e+03
 1.0100260e+01   5.2278784e+03
 1.0104940e+01   5.2281235e+03
 1.0109620e+01   5.2307573e+03
 1.0114300e+01   5.2293636e+03
 1.0118980e+01   5.2402833e+03
 1.0123660e+01   5.2459435e+03
 1.0128340e+01   5.2323650e+03
 1.0133020e+01   5.2358327e+03
 1.0137700e+01   5.2548523e+03
 1.0142380e+01   5.2600001e+03
 1.0147060e+01   5.2706432e+03
 1.0151740e+01   5.2801603e+03
 1.0156420e+01   5.3023911e+03
 1.0161100e+01   5.3059742e+03
 1.0165780e+01   5.3190874e+03
 1.0170460e+01   5.3449450e+03
 1.0175140e+01   5.3599015e+03
 1.0179820e+01   5.3699897e+03
 1.0184500e+01   5.3965929e+03
 1.0189180e+01   5.3952467e+03
 1.0193860e+01   5.4615988e+03
 1.0198540e+01   5.4695840e+03
 1.0203220e+01   5.4992628e+03
 1.0207900e+01   5.5248920e+03
 1.0212580e+01   5.5413770e+03
 1.0217260e+01   5.5829204e+03
 1.0221940e+01   5.5827556e+03
 1.0226620e+01   5.6077738e+03
 1.0231300e+01   5.6442696e+03
 1.0235980e+01   5.6419217e+03
 1.0240660e+01   5.6447498e+03
 1.0245340e+01   5.6738960e+03
 1.0250020e+01   5.6628870e+03
 1.0254700e+01   5.6845837e+03
 1.0259380e+01   5.6978825e+03
 1.0264060e+01   5.7621039e+03
 1.0268740e+01   5.8670018e+03
 1.0273420e+01   5.9032364e+03
 1.0278100e+01   5.7988289e+03
 1.0282780e+01   5.7364211e+03
 1.0287460e+01   5.8538306e+03
 1.0292140e+01   5.9845682e+03
 1.0296820e+01   6.0189752e+03
 1.0301500e+01   6.0831052e+03
 1.0306180e+01   6.1029054e+03
 1.0310860e+01   5.9753140e+03
 1.0315540e+01   5.8916265e+03
 1.0320220e+01   5.7664952e+03
 1.0324900e+01   5.8511064e+03
 1.0329580e+01   5.9280879e+03
 1.0334260e+01   5.7074795e+03
 1.0338940e+01   5.5177576e+03
 1.0343620e+01   5.4643787e+03
 1.0348300e+01   5.3878953e+03
 1.0352980e+01   5.3452083e+03
 1.0357660e+01   5.3117314e+03
 1.0362340e+01   5.2824059e+03
 1.0367020e+01   5.2999440e+03
 1.0371700e+01   5.2569685e+03
 1.0376380e+01   5.2796814e+03
 1.0381060e+01   5.2908788e+03
 1.0385740e+01   5.2755692e+03
 1.0390420e+01   5.2926257e+03
 1.0395100e+01   5.2805021e+03
 1.0399780e+01   5.2784017e+03
 1.0404460e+01   5.3155793e+03
 1.0409140e+01   5.2968780e+03
 1.0413820e+01   5.3077032e+03
 1.0418500e+01   5.3445083e+03
 1.0423180e+01   5.3274977e+03
 1.0427860e+01   5.3644305e+03
 1.0432540e+01   5.3496496e+03
 1.0437220e+01   5.3689370e+03
 1.0441900e+01   5.4306511e+03
 1.0446580e+01   5.4151714e+03
 1.0451260e+01   5.4371753e+03
 1.0455940e+01   5.4715079e+03
 1.0460620e+01   5.4923499e+03
 1.0465300e+01   5.5265916e+03
 1.0469980e+01   5.5764973e+03
 1.0474660e+01   5.6682149e+03
 1.0479340e+01   5.7482229e+03
 1.0484020e+01   5.7880658e+03
 1.0488700e+01   5.9237024e+03
 1.0493380e+01   6.1093113e+03
 1.0498060e+01   6.3098313e+03
 1.0502740e+01   6.1823100e+03
 1.0507420e+01   6.4806655e+03
 1.0512100e+01   6.4976265e+03
 1.0516780e+01   6.4880796e+03
 1.0521460e+01   5.9183045e+03
 1.0526140e+01   6.3600548e+03
 1.0530820e+01   5.7259461e+03
 1.0535500e+01   5.6380629e+03
 1.0540180e+01   5.5406531e+03
 1.0544860e+01   5.4479428e+03
 1.0549540e+01   5.4071526e+03
 1.0554220e+01   5.4067181e+03
 1.0558900e+01   5.3550925e+03
 1.0563580e+01   5.3623523e+03
 1.0568260e+01   5.3235770e+03
 1.0572940e+01   5.2865492e+03
 1.0577620e+01   5.3017277e+03
 1.0582300e+01   5.2504601e+03
 1.0586980e+01   5.2529347e+03
 1.0591660e+01   5.2506424e+03
 1.0596340e+01   5.2153875e+03
 1.0601020e+01   5.2114446e+03
 1.0605700e+01   5.2038429e+03
 1.0610380e+01   5.1748200e+03
 1.0615060e+01   5.1770618e+03
 1.0619740e+01   5.1672254e+03
 1.0624420e+01   5.1567251e+03
 1.0629100e+01   5.1657923e+03
 1.0633780e+01   5.1329484e+03
 1.0638460e+01   5.1427839e+03
 1.0643140e+01   5.1290257e+03
 1.0647820e+01   5.1123941e+03
 1.0652500e+01   5.1208197e+03
 1.0657180e+01   5.1175373e+03
 1.0661860e+01   5.1061228e+03
 1.0666540e+01   5.1138210e+03
 1.0671220e+01   5.0943140e+03
 1.0675900e+01   5.0943736e+03
 1.0680580e+01   5.0928283e+03
 1.0685260e+01   5.0799717e+03
 1.0689940e+01   5.1036357e+03
 1.0694620e+01   5.0904930e+03
 1.0699300e+01   5.0898750e+03
 1.0703980e+01   5.1108343e+03
 1.0708660e+01   5.1061547e+03
 1.0713340e+01   5.1089884e+03
 1.0718020e+01   5.1206342e+03
 1.0722700e+01   5.1170090e+03
 1.0727380e+01   5.1488368e+03
 1.0732060e+01   5.1341351e+03
 1.0736740e+01   5.1485855e+03
 1.0741420e+01   5.1463077e+03
 1.0746100e+01   5.1692904e+03
 1.0750780e+01   5.1830172e+03
 1.0755460e+01   5.1768625e+03
 1.0760140e+01   5.1744066e+03
 1.0764820e+01   5.1815573e+03
 1.0769500e+01   5.1839988e+03
 1.0774180e+01   5.1757047e+03
 1.0778860e+01   5.1945093e+03
 1.0783540e+01   5.1750970e+03
 1.0788220e+01   5.1938525e+03
 1.0792900e+01   5.1634981e+03
 1.0797580e+01   5.1799114e+03
 1.0802260e+01   5.1632468e+03
 1.0806940e+01   5.1542666e+03
 1.0811620e+01   5.1628621e+03
 1.0816300e+01   5.1510840e+03
 1.0820980e+01   5.1507314e+03
 1.0825660e+01   5.1378945e+03
 1.0830340e+01   5.1330220e+03
 1.0835020e+01   5.1260616e+03
 1.0839700e+01   5.1245844e+03
 1.0844380e+01   5.1160464e+03
 1.0849060e+01   5.1083102e+03
 1.0853740e+01   5.0959375e+03
 1.0858420e+01   5.0899297e+03
 1.0863100e+01   5.0859742e+03
 1.0867780e+01   5.0819839e+03
 1.0872460e+01   5.0637605e+03
 1.0877140e+01   5.0466345e+03
 1.0881820e+01   5.0352509e+03
 1.0886500e+01   5.0214410e+03
 1.0891180e+01   5.0115069e+03
 1.0895860e+01   5.0033262e+03
 1.0900540e+01   5.0013848e+03
 1.0905220e+01   4.9783630e+03
 1.0909900e+01   4.9665469e+03
 1.0914580e+01   4.9579851e+03
 1.0919260e+01   4.9412041e+03
 1.0923940e+01   4.9216435e+03
 1.0928620e+01   4.9193715e+03
 1.0933300e+01   4.9112104e+03
 1.0937980e+01   4.9079473e+03
 1.0942660e+01   4.8930739e+03
 1.0947340e+01   4.8911944e+03
 1.0952020e+01   4.8725917e+03
 1.0956700e+01   4.8691621e+03
 1.0961380e+01   4.8720212e+03
 1.0966060e+01   4.8564668e+03
 1.0970740e+01   4.8579006e+03
 1.0975420e+01   4.8530863e+03
 1.0980100e+01   4.8455277e+03
 1.0984780e+01   4.8425453e+03
 1.0989460e+01   4.8392951e+03
 1.0994140e+01   4.8354364e+03
 1.0998820e+01   4.8351728e+03
 1.1003500e+01   4.8205598e+03
 1.1008180e+01   4.8296916e+03
 1.1012860e+01   4.8252817e+03
 1.1017540e+01   4.8137567e+03
 1.1022220e+01   4.8284048e+03
 1.1026900e+01   4.8234778e+03
 1.1031580e+01   4.8323104e+03
 1.1036260e+01   4.8304119e+03
 1.1040940e+01   4.8370053e+03
 1.1045620e+01   4.8244944e+03
 1.1050300e+01   4.8363992e+03
 1.1054980e+01   4.8334524e+03
 1.1059660e+01   4.8489044e+03
 1.1064340e+01   4.8390195e+03
 1.1069020e+01   4.8485337e+03
 1.1073700e+01   4.8620837e+03
 1.1078380e+01   4.8541884e+03
 1.1083060e+01   4.8712736e+03
 1.1087740e+01   4.8793317e+03
 1.1092420e+01   4.8789900e+03
 1.1097100e+01   4.9116364e+03
 1.1101780e+01   4.9108347e+03
 1.1106460e+01   4.9211163e+03
 1.1111140e+01   4.9429624e+03
 1.1115820e+01   4.9410344e+03
 1.1120500e+01   4.9615635e+03
 1.1125180e+01   4.9631081e+03
 1.1129860e+01   4.9846469e+03
 1.1134540e+01   4.9926848e+03
 1.1139220e+01   4.9892912e+03
 1.1143900e+01   5.0082837e+03
 1.1148580e+01   5.0068160e+03
 1.1153260e+01   5.0081847e+03
 1.1157940e+01   5.0147068e+03
 1.1162620e+01   5.0025805e+03
 1.1167300e+01   4.9962743e+03
 1.1171980e+01   5.0023671e+03
 1.1176660e+01   4.9747812e+03
 1.1181340e+01   4.9870460e+03
 1.1186020e+01   4.9752621e+03
 1.1190700e+01   4.9595840e+03
 1.1195380e+01   5.0284465e+03
 1.1200060e+01   4.9255743e+03
 1.1204740e+01   4.9293175e+03
 1.1209420e+01   5.1920062e+03
 1.1214100e+01   4.9178476e+03
 1.1218780e+01   5.1168831e+03
 1.1223460e+01   4.9195782e+03
 1.1228140e+01   4.9193744e+03
 1.1232820e+01   4.9778166e+03
 1.1237500e+01   4.8973881e+03
 1.1242180e+01   4.8677374e+03
 1.1246860e+01   4.8524010e+03
 1.1251540e+01   4.8181228e+03
 1.1256220e+01   4.8138499e+03
 1.1260900e+01   4.7825925e+03
 1.1265580e+01   4.7678829e+03
 1.1270260e+01   4.7643076e+03
 1.1274940e+01   4.7302030e+03
 1.1279620e+01   4.7453716e+03
 1.1284300e+01   4.7136580e+03
 1.1288980e+01   4.7112568e+03
 1.1293660e+01   4.7086723e+03
 1.1298340e+01   4.6764450e+03
 1.1303020e+01   4.6894602e+03
 1.1307700e+01   4.6736595e+03
 1.1312380e+01   4.6626008e+03
 1.1317060e+01   4.6696197e+03
 1.1321740e+01   4.6463074e+03
 1.1326420e+01   4.6433460e+03
 1.1331100e+01   4.6454783e+03
 1.1335780e+01   4.6274183e+03
 1.1340460e+01   4.6208599e+03
 1.1345140e+01   4.6239641e+03
 1.1349820e+01   4.6034572e+03
 1.1354500e+01   4.6266058e+03
 1.1359180e+01   4.5909245e+03
 1.1363860e+01   4.5972147e+03
 1.1368540e+01   4.5878101e+03
 1.1373220e+01   4.5835339e+03
 1.1377900e+01   4.5888979e+03
 1.1382580e+01   4.5717321e+03
 1.1387260e+01   4.5669047e+03
 1.1391940e+01   4.5733392e+03
 1.1396620e+01   4.5586473e+03
 1.1401300e+01   4.5601803e+03
 1.1405980e+01   4.5529976e+03
 1.1410660e+01   4.5507397e+03
 1.1415340e+01   4.5490486e+03
 1.1420020e+01   4.5424414e+03
 1.1424700e+01   4.5411467e+03
 1.1429380e+01   4.5440816e+03
 1.1434060e+01   4.5264063e+03
 1.1438740e+01   4.5259043e+03
 1.1443420e+01   4.5290797e+03
 1.1448100e+01   4.5206018e+03
 1.1452780e+01   4.5306457e+03
 1.1457460e+01   4.5193150e+03
 1.1462140e+01   4.5139097e+03
 1.1466820e+01   4.5171280e+03
 1.1471500e+01   4.5048066e+03
 1.1476180e+01   4.5109866e+03
 1.1480860e+01   4.5075552e+03
 1.1485540e+01   4.5058159e+03
 1.1490220e+01   4.5074720e+03
 1.1494900e+01   4.4987806e+03
 1.1499580e+01   4.4935451e+03
 1.1504260e+01   4.4971782e+03
 1.1508940e+01   4.4956231e+03
 1.1513620e+01   4.4968927e+03
 1.1518300e+01   4.4869163e+03
 1.1522980e+01   4.4821181e+03
 1.1527660e+01   4.4824101e+03
 1.1532340e+01   4.4747662e+03
 1.1537020e+01   4.4799234e+03
 1.1541700e+01   4.4635664e+03
 1.1546380e+01   4.4644591e+03
 1.1551060e+01   4.4678792e+03
 1.1555740e+01   4.4552604e+03
 1.1560420e+01   4.4532934e+03
 1.1565100e+01   4.4573657e+03
 1.1569780e+01   4.4393003e+03
 1.1574460e+01   4.4439380e+03
 1.1579140e+01   4.4438847e+03
 1.1583820e+01   4.4383859e+03
 1.1588500e+01   4.4382874e+03
 1.1593180e+01   4.4380417e+03
 1.1597860e+01   4.4422234e+03
 1.1602540e+01   4.4391875e+03
 1.1607220e+01   4.4436454e+03
 1.1611900e+01   4.4389675e+03
 1.1616580e+01   4.4335636e+03
 1.1621260e+01   4.4404519e+03
 1.1625940e+01   4.4340242e+03
 1.1630620e+01   4.4327193e+03
 1.1635300e+01   4.4337750e+03
 1.1639980e+01   4.4257564e+03
 1.1644660e+01   4.4217197e+03
 1.1649340e+01   4.4194732e+03
 1.1654020e+01   4.4082332e+03
 1.1658700e+01   4.4043529e+03
 1.1663380e+01   4.4100728e+03
 1.1668060e+01   4.3959089e+03
 1.1672740e+01   4.4013386e+03
 1.1677420e+01   4.3905522e+03
 1.1682100e+01   4.3880828e+03
 1.1686780e+01   4.3823592e+03
 1.1691460e+01   4.3793349e+03
 1.1696140e+01   4.3812622e+03
 1.1700820e+01   4.3855000e+03
 1.1705500e+01   4.3791941e+03
 1.1710180e+01   4.3950337e+03
 1.1714860e+01   4.3759636e+03
 1.1719540e+01   4.3677482e+03
 1.1724220e+01   4.3849491e+03
 1.1728900e+01   4.3696553e+03
 1.1733580e+01   4.3764725e+03
 1.1738260e+01   4.3652104e+03
 1.1742940e+01   4.3639669e+03
 1.1747620e+01   4.3767290e+03
 1.1752300e+01   4.3743854e+03
 1.1756980e+01   4.3747144e+03
 1.1761660e+01   4.3824026e+03
 1.1766340e+01   4.3730876e+03
 1.1771020e+01   4.3664702e+03
 1.1775700e+01   4.3737615e+03
 1.1780380e+01   4.3783346e+03
 1.1785060e+01   4.3767744e+03
 1.1789740e+01   4.3713070e+03
 1.1794420e+01   4.3868915e+03
 1.1799100e+01   4.3831421e+03
 1.1803780e+01   4.3848754e+03
 1.1808460e+01   4.3896434e+03
 1.1813140e+01   4.3797353e+03
 1.1817820e+01   4.3913375e+03
 1.1822500e+01   4.3945480e+03
 1.1827180e+01   4.3967754e+03
 1.1831860e+01   4.4081083e+03
 1.1836540e+01   4.4131968e+03
 1.1841220e+01   4.4120309e+03
 1.1845900e+01   4.4308709e+03
 1.1850580e+01   4.4370152e+03
 1.1855260e+01   4.4499766e+03
 1.1859940e+01   4.4645718e+03
 1.1864620e+01   4.4853831e+03
 1.1869300e+01   4.5100940e+03
 1.1873980e+01   4.5381777e+03
 1.1878660e+01   4.5600122e+03
 1.1883340e+01   4.5972558e+03
 1.1888020e+01   4.6273383e+03
 1.1892700e+01   4.6976668e+03
 1.1897380e+01   4.7634824e+03
 1.1902060e+01   4.7811146e+03
 1.1906740e+01   4.8032733e+03
 1.1911420e+01   4.7975210e+03
 1.1916100e+01   4.7696683e+03
 1.1920780e+01   4.7380703e+03
 1.1925460e+01   4.7411352e+03
 1.1930140e+01   4.6854953e+03
 1.1934820e+01   4.6734159e+03
 1.1939500e+01   4.6618529e+03
 1.1944180e+01   4.6297799e+03
 1.1948860e+01   4.6344097e+03
 1.1953540e+01   4.6241833e+03
 1.1958220e+01   4.6153415e+03
 1.1962900e+01   4.6164891e+03
 1.1967580e+01   4.6343672e+03
 1.1972260e+01   4.6215261e+03
 1.1976940e+01   4.6292787e+03
 1.1981620e+01   4.6227185e+03
 1.1986300e+01   4.6225040e+03
 1.1990980e+01   4.6346553e+03
 1.1995660e+01   4.6120358e+03
 1.2000340e+01   4.6180227e+03
 1.2005020e+01   4.6085490e+03
 1.2009700e+01   4.6025414e+03
 1.2014380e+01   4.6061681e+03
 1.2019060e+01   4.5936494e+03
 1.2023740e+01   4.5731653e+03
 1.2028420e+01   4.5804280e+03
 1.2033100e+01   4.5569440e+03
 1.2037780e+01   4.5445935e+03
 1.2042460e+01   4.5280555e+03
 1.2047140e+01   4.5158701e+03
 1.2051820e+01   4.5048025e+03
 1.2056500e+01   4.4888105e+03
 1.2061180e+01   4.4837539e+03
 1.2065860e+01   4.4663844e+03
 1.2070540e+01   4.4597214e+03
 1.2075220e+01   4.4529381e+03
 1.2079900e+01   4.4519231e+03
 1.2084580e+01   4.4359678e+03
 1.2089260e+01   4.4352792e+03
 1.2093940e+01   4.4194528e+03
 1.2098620e+01   4.4107508e+03
 1.2103300e+01   4.4036906e+03
 1.2107980e+01   4.4079774e+03
 1.2112660e+01   4.3933204e+03
 1.2117340e+01   4.3795812e+03
 1.2122020e+01   4.3642468e+03
 1.2126700e+01   4.3576785e+03
 1.2131380e+01   4.3358842e+03
 1.2136060e+01   4.3231024e+03
 1.2140740e+01   4.3075191e+03
 1.2145420e+01   4.2921049e+03
 1.2150100e+01   4.2943948e+03
 1.2154780e+01   4.2755703e+03
 1.2159460e+01   4.2643517e+03
 1.2164140e+01   4.2591657e+03
 1.2168820e+01   4.2376720e+03
 1.2173500e+01   4.2314001e+03
 1.2178180e+01   4.2283823e+03
 1.2182860e+01   4.2054986e+03
 1.2187540e+01   4.2023921e+03
 1.2192220e+01   4.1953033e+03
 1.2196900e+01   4.1920898e+03
 1.2201580e+01   4.1870685e+03
 1.2206260e+01   4.1690248e+03
 1.2210940e+01   4.1733133e+03
 1.2215620e+01   4.1597988e+03
 1.2220300e+01   4.1627935e+03
 1.2224980e+01   4.1514329e+03
 1.2229660e+01   4.1466315e+03
 1.2234340e+01   4.1452139e+03
 1.2239020e+01   4.1346367e+03
 1.2243700e+01   4.1413735e+03
 1.2248380e+01   4.1301864e+03
 1.2253060e+01   4.1365078e+03
 1.2257740e+01   4.1295456e+03
 1.2262420e+01   4.1344689e+03
 1.2267100e+01   4.1227170e+03
 1.2271780e+01   4.1272956e+03
 1.2276460e+01   4.1263018e+03
 1.2281140e+01   4.1270883e+03
 1.2285820e+01   4.1186628e+03
 1.2290500e+01   4.1129788e+03
 1.2295180e+01   4.1189927e+03
 1.2299860e+01   4.1126788e+03
 1.2304540e+01   4.1173256e+03
 1.2309220e+01   4.1162259e+03
 1.2313900e+01   4.1116790e+03
 1.2318580e+01   4.1161159e+03
 1.2323260e+01   4.1091532e+03
 1.2327940e+01   4.1082557e+03
 1.2332620e+01   4.1205510e+03
 1.2337300e+01   4.1225141e+03
 1.2341980e+01   4.1166333e+03
 1.2346660e+01   4.1257271e+03
 1.2351340e+01   4.1302536e+03
 1.2356020e+01   4.1309378e+03
 1.2360700e+01   4.1317397e+03
 1.2365380e+01   4.1429372e+03
 1.2370060e+01   4.1488881e+03
 1.2374740e+01   4.1534128e+03
 1.2379420e+01   4.1483467e+03
 1.2384100e+01   4.1581344e+03
 1.2388780e+01   4.1587966e+03
 1.2393460e+01   4.1615446e+03
 1.2398140e+01   4.1640394e+03
 1.2402820e+01   4.1672336e+03
 1.2407500e+01   4.1663829e+03
 1.2412180e+01   4.1607882e+03
 1.2416860e+01   4.1658436e+03
 1.2421540e+01   4.1694583e+03
 1.2426220e+01   4.1711162e+03
 1.2430900e+01   4.1659211e+03
 1.2435580e+01   4.1717137e+03
 1.2440260e+01   4.1660549e+03
 1.2444940e+01   4.1825212e+03
 1.2449620e+01   4.1802095e+03
 1.2454300e+01   4.1721485e+03
 1.2458980e+01   4.1765784e+03
 1.2463660e+01   4.1661885e+03
 1.2468340e+01   4.1738331e+03
 1.2473020e+01   4.1633406e+03
 1.2477700e+01   4.1723252e+03
 1.2482380e+01   4.1670688e+03
 1.2487060e+01   4.1600798e+03
 1.2491740e+01   4.1627612e+03
 1.2496420e+01   4.1554116e+03
 1.2501100e+01   4.1465910e+03
 1.2505780e+01   4.1488713e+03
 1.2510460e+01   4.1414481e+03
 1.2515140e+01   4.1373771e+03
 1.2519820e+01   4.1331871e+03
 1.2524500e+01   4.1345626e+03
 1.2529180e+01   4.1339488e+03
 1.2533860e+01   4.1286236e+03
 1.2538540e+01   4.1340470e+03
 1.2543220e+01   4.1435374e+03
 1.2547900e+01   4.1518925e+03
 1.2552580e+01   4.1475041e+03
 1.2557260e+01   4.1653467e+03
 1.2561940e+01   4.1798076e+03
 1.2566620e+01   4.1523568e+03
 1.2571300e+01   4.2129717e+03
 1.2575980e+01   4.1648452e+03
 1.2580660e+01   4.1391385e+03
 1.2585340e+01   4.1631615e+03
 1.2590020e+01   4.1496778e+03
 1.2594700e+01   4.1421497e+03
 1.2599380e+01   4.1570206e+03
 1.2604060e+01   4.1493347e+03
 1.2608740e+01   4.1541424e+03
 1.2613420e+01   4.1547138e+03
 1.2618100e+01   4.1654098e+03
 1.2622780e+01   4.1785288e+03
 1.2627460e+01   4.1738052e+03
 1.2632140e+01   4.1889417e+03
 1.2636820e+01   4.1978242e+03
 1.2641500e+01   4.1987869e+03
 1.2646180e+01   4.1951148e+03
 1.2650860e+01   4.2084571e+03
 1.2655540e+01   4.2188297e+03
 1.2660220e+01   4.2262594e+03
 1.2664900e+01   4.2287013e+03
 1.2669580e+01   4.2331408e+03
 1.2674260e+01   4.2415194e+03
 1.2678940e+01   4.2459752e+03
 1.2683620e+01   4.2532091e+03
 1.2688300e+01   4.2586331e+03
 1.2692980e+01   4.2633134e+03
 1.2697660e+01   4.2706461e+03
