MA2b-00003.tif Azm= 0.00
2-Theta Angle (Degrees)
Intensity
       2500
 1.0023400e+00   7.9797655e+03
 1.0070200e+00   7.9295379e+03
 1.0117000e+00   7.8865198e+03
 1.0163800e+00   7.9110899e+03
 1.0210600e+00   7.8337760e+03
 1.0257400e+00   7.7998448e+03
 1.0304199e+00   7.7892083e+03
 1.0351000e+00   7.7768988e+03
 1.0397800e+00   7.7263280e+03
 1.0444601e+00   7.7105973e+03
 1.0491400e+00   7.6636842e+03
 1.0538200e+00   7.6816456e+03
 1.0585001e+00   7.6479309e+03
 1.0631800e+00   7.6448353e+03
 1.0678600e+00   7.6295959e+03
 1.0725400e+00   7.5526717e+03
 1.0772200e+00   7.5263622e+03
 1.0819000e+00   7.5429937e+03
 1.0865800e+00   7.5238809e+03
 1.0912600e+00   7.5010830e+03
 1.0959400e+00   7.4920474e+03
 1.1006200e+00   7.4989723e+03
 1.1052999e+00   7.4558821e+03
 1.1099800e+00   7.4275861e+03
 1.1146600e+00   7.4054428e+03
 1.1193399e+00   7.4204054e+03
 1.1240200e+00   7.3833436e+03
 1.1287000e+00   7.3802068e+03
 1.1333801e+00   7.3852995e+03
 1.1380600e+00   7.3529556e+03
 1.1427400e+00   7.3469020e+03
 1.1474200e+00   7.2702562e+03
 1.1521000e+00   7.3067865e+03
 1.1567800e+00   7.3141127e+03
 1.1614600e+00   7.2670363e+03
 1.1661400e+00   7.2543462e+03
 1.1708200e+00   7.2698222e+03
 1.1755000e+00   7.2312329e+03
 1.1801800e+00   7.2208171e+03
 1.1848600e+00   7.2224132e+03
 1.1895400e+00   7.2131677e+03
 1.1942199e+00   7.2123169e+03
 1.1989000e+00   7.2214863e+03
 1.2035800e+00   7.1801058e+03
 1.2082601e+00   7.1959366e+03
 1.2129400e+00   7.1659790e+03
 1.2176200e+00   7.1695815e+03
 1.2223001e+00   7.1823481e+03
 1.2269800e+00   7.1523034e+03
 1.2316600e+00   7.1705301e+03
 1.2363400e+00   7.1799190e+03
 1.2410200e+00   7.1363879e+03
 1.2457000e+00   7.1467490e+03
 1.2503800e+00   7.1474687e+03
 1.2550600e+00   7.1337020e+03
 1.2597400e+00   7.1344416e+03
 1.2644200e+00   7.1135798e+03
 1.2691000e+00   7.1339179e+03
 1.2737800e+00   7.1129752e+03
 1.2784600e+00   7.1172450e+03
 1.2831399e+00   7.0722301e+03
 1.2878200e+00   7.1476392e+03
 1.2925000e+00   7.1348233e+03
 1.2971801e+00   7.1122011e+03
 1.3018600e+00   7.1586738e+03
 1.3065400e+00   7.1586611e+03
 1.3112200e+00   7.1545128e+03
 1.3159000e+00   7.1522679e+03
 1.3205800e+00   7.1647819e+03
 1.3252600e+00   7.1901842e+03
 1.3299400e+00   7.1948386e+03
 1.3346200e+00   7.1853319e+03
 1.3393000e+00   7.1793361e+03
 1.3439800e+00   7.1652261e+03
 1.3486600e+00   7.2154922e+03
 1.3533400e+00   7.1797387e+03
 1.3580199e+00   7.2450534e+03
 1.3627000e+00   7.2215342e+03
 1.3673800e+00   7.2479740e+03
 1.3720599e+00   7.2301175e+03
 1.3767400e+00   7.2384426e+03
 1.3814200e+00   7.2341632e+03
 1.3861001e+00   7.2848921e+03
 1.3907800e+00   7.2741525e+03
 1.3954600e+00   7.3076835e+03
 1.4001400e+00   7.2965771e+03
 1.4048200e+00   7.3086840e+03
 1.4095000e+00   7.3409012e+03
 1.4141800e+00   7.3534363e+03
 1.4188600e+00   7.3361898e+03
 1.4235400e+00   7.3840955e+03
 1.4282200e+00   7.3743800e+03
 1.4329000e+00   7.4354331e+03
 1.4375800e+00   7.4484440e+03
 1.4422600e+00   7.4567662e+03
 1.4469399e+00   7.4805470e+03
 1.4516200e+00   7.5328033e+03
 1.4563000e+00   7.5171401e+03
 1.4609801e+00   7.5567458e+03
 1.4656600e+00   7.6024625e+03
 1.4703400e+00   7.6082087e+03
 1.4750201e+00   7.6511137e+03
 1.4797000e+00   7.6818018e+03
 1.4843800e+00   7.7174941e+03
 1.4890600e+00   7.7037987e+03
 1.4937400e+00   7.7373622e+03
 1.4984200e+00   7.7655681e+03
 1.5031000e+00   7.7595601e+03
 1.5077800e+00   7.7909878e+03
 1.5124600e+00   7.7999574e+03
 1.5171400e+00   7.7925825e+03
 1.5218199e+00   7.8268116e+03
 1.5265000e+00   7.8173763e+03
 1.5311800e+00   7.8264173e+03
 1.5358599e+00   7.8107015e+03
 1.5405400e+00   7.8105248e+03
 1.5452200e+00   7.8181488e+03
 1.5499001e+00   7.8125913e+03
 1.5545800e+00   7.7799396e+03
 1.5592600e+00   7.7650332e+03
 1.5639400e+00   7.7602839e+03
 1.5686200e+00   7.7758600e+03
 1.5733000e+00   7.7501328e+03
 1.5779800e+00   7.7518041e+03
 1.5826600e+00   7.7497909e+03
 1.5873400e+00   7.7625228e+03
 1.5920200e+00   7.7313489e+03
 1.5967000e+00   7.7430971e+03
 1.6013800e+00   7.7337349e+03
 1.6060600e+00   7.7254863e+03
 1.6107399e+00   7.7242452e+03
 1.6154200e+00   7.7574687e+03
 1.6201000e+00   7.7185627e+03
 1.6247801e+00   7.7218244e+03
 1.6294600e+00   7.7304237e+03
 1.6341400e+00   7.7321554e+03
 1.6388201e+00   7.7467003e+03
 1.6435000e+00   7.7563584e+03
 1.6481800e+00   7.7117226e+03
 1.6528600e+00   7.7293414e+03
 1.6575400e+00   7.7420884e+03
 1.6622200e+00   7.7381366e+03
 1.6669000e+00   7.7233088e+03
 1.6715800e+00   7.7339328e+03
 1.6762600e+00   7.7317928e+03
 1.6809400e+00   7.7499806e+03
 1.6856200e+00   7.7371888e+03
 1.6903000e+00   7.7190983e+03
 1.6949800e+00   7.7610242e+03
 1.6996599e+00   7.7326103e+03
 1.7043400e+00   7.7708075e+03
 1.7090200e+00   7.7375578e+03
 1.7137001e+00   7.7777279e+03
 1.7183800e+00   7.7493306e+03
 1.7230600e+00   7.7973273e+03
 1.7277400e+00   7.7740409e+03
 1.7324200e+00   7.8133998e+03
 1.7371000e+00   7.7450067e+03
 1.7417800e+00   7.7995178e+03
 1.7464600e+00   7.7768918e+03
 1.7511400e+00   7.8048308e+03
 1.7558200e+00   7.7940479e+03
 1.7605000e+00   7.8054141e+03
 1.7651800e+00   7.8060007e+03
 1.7698600e+00   7.8333791e+03
 1.7745399e+00   7.8148710e+03
 1.7792200e+00   7.8398538e+03
 1.7839000e+00   7.8560811e+03
 1.7885799e+00   7.8503928e+03
 1.7932600e+00   7.8748859e+03
 1.7979400e+00   7.9038711e+03
 1.8026201e+00   7.8856024e+03
 1.8073000e+00   7.9242325e+03
 1.8119800e+00   7.9307630e+03
 1.8166600e+00   7.9390479e+03
 1.8213400e+00   7.9764368e+03
 1.8260200e+00   7.9644833e+03
 1.8307000e+00   7.9765149e+03
 1.8353800e+00   8.0094129e+03
 1.8400600e+00   8.0377364e+03
 1.8447400e+00   8.0524888e+03
 1.8494200e+00   8.0556601e+03
 1.8541000e+00   8.0913560e+03
 1.8587800e+00   8.1174724e+03
 1.8634599e+00   8.1570539e+03
 1.8681400e+00   8.1422160e+03
 1.8728200e+00   8.1905949e+03
 1.8775001e+00   8.1787638e+03
 1.8821800e+00   8.2226915e+03
 1.8868600e+00   8.2392480e+03
 1.8915401e+00   8.2567388e+03
 1.8962200e+00   8.2657096e+03
 1.9009000e+00   8.2572768e+03
 1.9055800e+00   8.3217066e+03
 1.9102600e+00   8.3251693e+03
 1.9149400e+00   8.3685917e+03
 1.9196200e+00   8.3774891e+03
 1.9243000e+00   8.4203435e+03
 1.9289800e+00   8.4329555e+03
 1.9336600e+00   8.4630282e+03
 1.9383399e+00   8.5007355e+03
 1.9430200e+00   8.5004271e+03
 1.9477000e+00   8.5359010e+03
 1.9523799e+00   8.5341812e+03
 1.9570600e+00   8.5894917e+03
 1.9617400e+00   8.6559430e+03
 1.9664201e+00   8.6612118e+03
 1.9711000e+00   8.7813811e+03
 1.9757800e+00   8.7085856e+03
 1.9804600e+00   8.7636994e+03
 1.9851400e+00   8.7487835e+03
 1.9898200e+00   8.7975747e+03
 1.9945000e+00   8.7887405e+03
 1.9991800e+00   8.8202772e+03
 2.0038600e+00   8.8236485e+03
 2.0085399e+00   8.8667839e+03
 2.0132201e+00   8.8731983e+03
 2.0179000e+00   8.9087544e+03
 2.0225799e+00   8.9106675e+03
 2.0272601e+00   8.9736306e+03
 2.0319400e+00   8.9893923e+03
 2.0366199e+00   9.0162606e+03
 2.0413001e+00   9.0469991e+03
 2.0459800e+00   9.0687143e+03
 2.0506599e+00   9.1143156e+03
 2.0553401e+00   9.1327481e+03
 2.0600200e+00   9.1662305e+03
 2.0646999e+00   9.2100797e+03
 2.0693800e+00   9.2559867e+03
 2.0740600e+00   9.2855364e+03
 2.0787399e+00   9.3682567e+03
 2.0834200e+00   9.4386614e+03
 2.0881000e+00   9.5314780e+03
 2.0927801e+00   9.6569223e+03
 2.0974600e+00   9.8280764e+03
 2.1021399e+00   1.0001972e+04
 2.1068201e+00   1.0206430e+04
 2.1115000e+00   1.0619618e+04
 2.1161799e+00   1.1110540e+04
 2.1208601e+00   1.1868825e+04
 2.1255400e+00   1.2892368e+04
 2.1302199e+00   1.4313574e+04
 2.1349001e+00   1.6036195e+04
 2.1395800e+00   1.7977343e+04
 2.1442599e+00   2.0014137e+04
 2.1489401e+00   2.1994629e+04
 2.1536200e+00   2.3449747e+04
 2.1582999e+00   2.4423041e+04
 2.1629801e+00   2.5019153e+04
 2.1676600e+00   2.5236434e+04
 2.1723399e+00   2.5029120e+04
 2.1770201e+00   2.4511632e+04
 2.1817000e+00   2.3755258e+04
 2.1863799e+00   2.2772507e+04
 2.1910601e+00   2.1505987e+04
 2.1957400e+00   2.0244866e+04
 2.2004199e+00   1.8920906e+04
 2.2051001e+00   1.7695849e+04
 2.2097800e+00   1.6636535e+04
 2.2144599e+00   1.5771414e+04
 2.2191401e+00   1.5039029e+04
 2.2238200e+00   1.4492711e+04
 2.2284999e+00   1.4063077e+04
 2.2331800e+00   1.3702932e+04
 2.2378600e+00   1.3405328e+04
 2.2425399e+00   1.3086741e+04
 2.2472200e+00   1.2736865e+04
 2.2519000e+00   1.2368883e+04
 2.2565801e+00   1.1973667e+04
 2.2612600e+00   1.1630053e+04
 2.2659400e+00   1.1313889e+04
 2.2706201e+00   1.1064759e+04
 2.2753000e+00   1.0877064e+04
 2.2799799e+00   1.0762751e+04
 2.2846601e+00   1.0634972e+04
 2.2893400e+00   1.0584355e+04
 2.2940199e+00   1.0572848e+04
 2.2987001e+00   1.0528288e+04
 2.3033800e+00   1.0532546e+04
 2.3080599e+00   1.0545461e+04
 2.3127401e+00   1.0550143e+04
 2.3174200e+00   1.0555170e+04
 2.3220999e+00   1.0576987e+04
 2.3267801e+00   1.0598088e+04
 2.3314600e+00   1.0619593e+04
 2.3361399e+00   1.0670259e+04
 2.3408201e+00   1.0686612e+04
 2.3455000e+00   1.0703892e+04
 2.3501799e+00   1.0715179e+04
 2.3548601e+00   1.0718721e+04
 2.3595400e+00   1.0762629e+04
 2.3642199e+00   1.0798582e+04
 2.3689001e+00   1.0834560e+04
 2.3735800e+00   1.0863640e+04
 2.3782599e+00   1.0863435e+04
 2.3829401e+00   1.0909217e+04
 2.3876200e+00   1.0934287e+04
 2.3922999e+00   1.0974852e+04
 2.3969800e+00   1.1032407e+04
 2.4016600e+00   1.1043842e+04
 2.4063399e+00   1.1080008e+04
 2.4110200e+00   1.1099995e+04
 2.4157000e+00   1.1148809e+04
 2.4203801e+00   1.1192431e+04
 2.4250600e+00   1.1236545e+04
 2.4297400e+00   1.1263567e+04
 2.4344201e+00   1.1298481e+04
 2.4391000e+00   1.1338848e+04
 2.4437799e+00   1.1378975e+04
 2.4484601e+00   1.1421362e+04
 2.4531400e+00   1.1470533e+04
 2.4578199e+00   1.1497528e+04
 2.4625001e+00   1.1512513e+04
 2.4671800e+00   1.1557136e+04
 2.4718599e+00   1.1589706e+04
 2.4765401e+00   1.1617030e+04
 2.4812200e+00   1.1681815e+04
 2.4858999e+00   1.1686093e+04
 2.4905801e+00   1.1722226e+04
 2.4952600e+00   1.1780890e+04
 2.4999399e+00   1.1800189e+04
 2.5046201e+00   1.1862403e+04
 2.5093000e+00   1.1879600e+04
 2.5139799e+00   1.1941054e+04
 2.5186601e+00   1.1978376e+04
 2.5233400e+00   1.1995701e+04
 2.5280199e+00   1.2036295e+04
 2.5327001e+00   1.2069468e+04
 2.5373800e+00   1.2113737e+04
 2.5420599e+00   1.2148305e+04
 2.5467401e+00   1.2173156e+04
 2.5514200e+00   1.2199578e+04
 2.5560999e+00   1.2222913e+04
 2.5607800e+00   1.2283721e+04
 2.5654600e+00   1.2297347e+04
 2.5701399e+00   1.2330150e+04
 2.5748200e+00   1.2356556e+04
 2.5795000e+00   1.2373852e+04
 2.5841801e+00   1.2413728e+04
 2.5888600e+00   1.2441455e+04
 2.5935400e+00   1.2483935e+04
 2.5982201e+00   1.2502179e+04
 2.6029000e+00   1.2517625e+04
 2.6075799e+00   1.2554819e+04
 2.6122601e+00   1.2584648e+04
 2.6169400e+00   1.2589742e+04
 2.6216199e+00   1.2615817e+04
 2.6263001e+00   1.2639163e+04
 2.6309800e+00   1.2675350e+04
 2.6356599e+00   1.2678588e+04
 2.6403401e+00   1.2711457e+04
 2.6450200e+00   1.2724483e+04
 2.6496999e+00   1.2767780e+04
 2.6543801e+00   1.2766319e+04
 2.6590600e+00   1.2800421e+04
 2.6637399e+00   1.2796487e+04
 2.6684201e+00   1.2811367e+04
 2.6731000e+00   1.2838258e+04
 2.6777799e+00   1.2851844e+04
 2.6824601e+00   1.2841667e+04
 2.6871400e+00   1.2898049e+04
 2.6918199e+00   1.2861389e+04
 2.6965001e+00   1.2878697e+04
 2.7011800e+00   1.2901712e+04
 2.7058599e+00   1.2923720e+04
 2.7105401e+00   1.2925362e+04
 2.7152200e+00   1.2928371e+04
 2.7198999e+00   1.2906495e+04
 2.7245800e+00   1.2933400e+04
 2.7292600e+00   1.2941223e+04
 2.7339399e+00   1.2921772e+04
 2.7386200e+00   1.2940322e+04
 2.7433000e+00   1.2904038e+04
 2.7479801e+00   1.2888933e+04
 2.7526600e+00   1.2909835e+04
 2.7573400e+00   1.2880256e+04
 2.7620201e+00   1.2874599e+04
 2.7667000e+00   1.2882330e+04
 2.7713799e+00   1.2862018e+04
 2.7760601e+00   1.2857780e+04
 2.7807400e+00   1.2862564e+04
 2.7854199e+00   1.2849538e+04
 2.7901001e+00   1.2846228e+04
 2.7947800e+00   1.2854323e+04
 2.7994599e+00   1.2800885e+04
 2.8041401e+00   1.2821212e+04
 2.8088200e+00   1.2782675e+04
 2.8134999e+00   1.2794821e+04
 2.8181801e+00   1.2764120e+04
 2.8228600e+00   1.2752910e+04
 2.8275399e+00   1.2772674e+04
 2.8322201e+00   1.2716880e+04
 2.8369000e+00   1.2697711e+04
 2.8415799e+00   1.2718001e+04
 2.8462601e+00   1.2684306e+04
 2.8509400e+00   1.2689335e+04
 2.8556199e+00   1.2666506e+04
 2.8603001e+00   1.2641066e+04
 2.8649800e+00   1.2627582e+04
 2.8696599e+00   1.2606404e+04
 2.8743401e+00   1.2588499e+04
 2.8790200e+00   1.2589242e+04
 2.8836999e+00   1.2540121e+04
 2.8883801e+00   1.2531318e+04
 2.8930600e+00   1.2512725e+04
 2.8977399e+00   1.2500907e+04
 2.9024200e+00   1.2474864e+04
 2.9071000e+00   1.2459544e+04
 2.9117801e+00   1.2434245e+04
 2.9164600e+00   1.2429454e+04
 2.9211400e+00   1.2402340e+04
 2.9258201e+00   1.2401129e+04
 2.9305000e+00   1.2359613e+04
 2.9351799e+00   1.2346769e+04
 2.9398601e+00   1.2297407e+04
 2.9445400e+00   1.2326818e+04
 2.9492199e+00   1.2290767e+04
 2.9539001e+00   1.2267749e+04
 2.9585800e+00   1.2257777e+04
 2.9632599e+00   1.2215589e+04
 2.9679401e+00   1.2197554e+04
 2.9726200e+00   1.2187010e+04
 2.9772999e+00   1.2167409e+04
 2.9819801e+00   1.2128372e+04
 2.9866600e+00   1.2102736e+04
 2.9913399e+00   1.2069384e+04
 2.9960201e+00   1.2062934e+04
 3.0007000e+00   1.2034637e+04
 3.0053799e+00   1.1999120e+04
 3.0100601e+00   1.1971063e+04
 3.0147400e+00   1.1945301e+04
 3.0194199e+00   1.1942569e+04
 3.0241001e+00   1.1900571e+04
 3.0287800e+00   1.1911270e+04
 3.0334599e+00   1.1865110e+04
 3.0381401e+00   1.1830322e+04
 3.0428200e+00   1.1786934e+04
 3.0474999e+00   1.1762689e+04
 3.0521801e+00   1.1720385e+04
 3.0568600e+00   1.1668649e+04
 3.0615399e+00   1.1675730e+04
 3.0662200e+00   1.1632590e+04
 3.0709000e+00   1.1617703e+04
 3.0755799e+00   1.1563111e+04
 3.0802600e+00   1.1567604e+04
 3.0849400e+00   1.1538847e+04
 3.0896201e+00   1.1502213e+04
 3.0943000e+00   1.1463965e+04
 3.0989799e+00   1.1465935e+04
 3.1036601e+00   1.1435228e+04
 3.1083400e+00   1.1436247e+04
 3.1130199e+00   1.1414050e+04
 3.1177001e+00   1.1382937e+04
 3.1223800e+00   1.1356951e+04
 3.1270599e+00   1.1333572e+04
 3.1317401e+00   1.1321982e+04
 3.1364200e+00   1.1298780e+04
 3.1410999e+00   1.1267783e+04
 3.1457801e+00   1.1251172e+04
 3.1504600e+00   1.1242363e+04
 3.1551399e+00   1.1239439e+04
 3.1598201e+00   1.1209656e+04
 3.1645000e+00   1.1173093e+04
 3.1691799e+00   1.1189515e+04
 3.1738601e+00   1.1124403e+04
 3.1785400e+00   1.1119979e+04
 3.1832199e+00   1.1117747e+04
 3.1879001e+00   1.1098017e+04
 3.1925800e+00   1.1073903e+04
 3.1972599e+00   1.1091678e+04
 3.2019401e+00   1.1084657e+04
 3.2066200e+00   1.1056656e+04
 3.2112999e+00   1.1038463e+04
 3.2159801e+00   1.0992594e+04
 3.2206600e+00   1.0993344e+04
 3.2253399e+00   1.0989177e+04
 3.2300200e+00   1.0956848e+04
 3.2347000e+00   1.0959336e+04
 3.2393799e+00   1.0950881e+04
 3.2440600e+00   1.0908011e+04
 3.2487400e+00   1.0912353e+04
 3.2534201e+00   1.0913260e+04
 3.2581000e+00   1.0890187e+04
 3.2627800e+00   1.0889482e+04
 3.2674601e+00   1.0877848e+04
 3.2721400e+00   1.0859350e+04
 3.2768199e+00   1.0856653e+04
 3.2815001e+00   1.0832101e+04
 3.2861800e+00   1.0851690e+04
 3.2908599e+00   1.0812292e+04
 3.2955401e+00   1.0851076e+04
 3.3002200e+00   1.0828958e+04
 3.3048999e+00   1.0814483e+04
 3.3095801e+00   1.0793698e+04
 3.3142600e+00   1.0802497e+04
 3.3189399e+00   1.0797870e+04
 3.3236201e+00   1.0817483e+04
 3.3283000e+00   1.0791886e+04
 3.3329799e+00   1.0802105e+04
 3.3376601e+00   1.0782696e+04
 3.3423400e+00   1.0794912e+04
 3.3470199e+00   1.0763569e+04
 3.3517001e+00   1.0795179e+04
 3.3563800e+00   1.0737793e+04
 3.3610599e+00   1.0776920e+04
 3.3657401e+00   1.0778568e+04
 3.3704200e+00   1.0764459e+04
 3.3750999e+00   1.0752895e+04
 3.3797801e+00   1.0766711e+04
 3.3844600e+00   1.0733125e+04
 3.3891399e+00   1.0748539e+04
 3.3938200e+00   1.0761396e+04
 3.3985000e+00   1.0778576e+04
 3.4031799e+00   1.0756868e+04
 3.4078600e+00   1.0734940e+04
 3.4125400e+00   1.0783582e+04
 3.4172201e+00   1.0766081e+04
 3.4219000e+00   1.0785963e+04
 3.4265800e+00   1.0800338e+04
 3.4312601e+00   1.0800227e+04
 3.4359400e+00   1.0816917e+04
 3.4406199e+00   1.0803579e+04
 3.4453001e+00   1.0790930e+04
 3.4499800e+00   1.0809000e+04
 3.4546599e+00   1.0800420e+04
 3.4593401e+00   1.0819886e+04
 3.4640200e+00   1.0813008e+04
 3.4686999e+00   1.0825950e+04
 3.4733801e+00   1.0780188e+04
 3.4780600e+00   1.0846757e+04
 3.4827399e+00   1.0821939e+04
 3.4874201e+00   1.0820714e+04
 3.4921000e+00   1.0834423e+04
 3.4967799e+00   1.0795988e+04
 3.5014601e+00   1.0844426e+04
 3.5061400e+00   1.0835378e+04
 3.5108199e+00   1.0810456e+04
 3.5155001e+00   1.0866040e+04
 3.5201800e+00   1.0822293e+04
 3.5248599e+00   1.0820426e+04
 3.5295401e+00   1.0866609e+04
 3.5342200e+00   1.0809438e+04
 3.5388999e+00   1.0864389e+04
 3.5435801e+00   1.0855362e+04
 3.5482600e+00   1.0825826e+04
 3.5529399e+00   1.0864879e+04
 3.5576200e+00   1.0880211e+04
 3.5623000e+00   1.0839238e+04
 3.5669799e+00   1.0909292e+04
 3.5716600e+00   1.0841471e+04
 3.5763400e+00   1.0891940e+04
 3.5810201e+00   1.0870822e+04
 3.5857000e+00   1.0869384e+04
 3.5903800e+00   1.0879862e+04
 3.5950601e+00   1.0958839e+04
 3.5997400e+00   1.0832549e+04
 3.6044199e+00   1.0945518e+04
 3.6091001e+00   1.0913548e+04
 3.6137800e+00   1.0889771e+04
 3.6184599e+00   1.0950224e+04
 3.6231401e+00   1.0941932e+04
 3.6278200e+00   1.0922140e+04
 3.6324999e+00   1.0992198e+04
 3.6371801e+00   1.0917864e+04
 3.6418600e+00   1.0973995e+04
 3.6465399e+00   1.1013641e+04
 3.6512201e+00   1.0965314e+04
 3.6559000e+00   1.1079900e+04
 3.6605799e+00   1.0992963e+04
 3.6652601e+00   1.1033421e+04
 3.6699400e+00   1.1084071e+04
 3.6746199e+00   1.1045476e+04
 3.6793001e+00   1.1063174e+04
 3.6839800e+00   1.1247526e+04
 3.6886599e+00   1.1011917e+04
 3.6933401e+00   1.1268352e+04
 3.6980200e+00   1.1091458e+04
 3.7026999e+00   1.1258506e+04
 3.7073801e+00   1.1201312e+04
 3.7120600e+00   1.1311190e+04
 3.7167399e+00   1.1179035e+04
 3.7214200e+00   1.1484064e+04
 3.7261000e+00   1.1268252e+04
 3.7307799e+00   1.1378680e+04
 3.7354600e+00   1.1420604e+04
 3.7401400e+00   1.1443282e+04
 3.7448201e+00   1.1581852e+04
 3.7495000e+00   1.1496747e+04
 3.7541800e+00   1.1582207e+04
 3.7588601e+00   1.1552070e+04
 3.7635400e+00   1.1647091e+04
 3.7682199e+00   1.1710318e+04
 3.7729001e+00   1.1897555e+04
 3.7775800e+00   1.1640751e+04
 3.7822599e+00   1.2004342e+04
 3.7869401e+00   1.1782655e+04
 3.7916200e+00   1.2009987e+04
 3.7962999e+00   1.2040913e+04
 3.8009801e+00   1.2293913e+04
 3.8056600e+00   1.1961993e+04
 3.8103399e+00   1.2540514e+04
 3.8150201e+00   1.1985183e+04
 3.8197000e+00   1.2761044e+04
 3.8243799e+00   1.2501835e+04
 3.8290601e+00   1.2851300e+04
 3.8337400e+00   1.2538961e+04
 3.8384199e+00   1.3250736e+04
 3.8431001e+00   1.2729188e+04
 3.8477800e+00   1.3400119e+04
 3.8524599e+00   1.3307262e+04
 3.8571401e+00   1.3702034e+04
 3.8618200e+00   1.3725953e+04
 3.8664999e+00   1.3725681e+04
 3.8711801e+00   1.4086745e+04
 3.8758600e+00   1.4426445e+04
 3.8805399e+00   1.4760154e+04
 3.8852201e+00   1.5455072e+04
 3.8899000e+00   1.5406102e+04
 3.8945799e+00   1.5999867e+04
 3.8992600e+00   1.6601491e+04
 3.9039400e+00   1.7741121e+04
 3.9086201e+00   1.8154467e+04
 3.9133000e+00   2.3183162e+04
 3.9179800e+00   2.2242069e+04
 3.9226601e+00   3.1377420e+04
 3.9273400e+00   3.1255493e+04
 3.9320199e+00   5.1559217e+04
 3.9367001e+00   5.1739824e+04
 3.9413800e+00   8.6017049e+04
 3.9460599e+00   7.2764135e+04
 3.9507401e+00   9.0254126e+04
 3.9554200e+00   7.8706603e+04
 3.9600999e+00   9.7796352e+04
 3.9647801e+00   9.4290428e+04
 3.9694600e+00   9.9135556e+04
 3.9741399e+00   1.2238743e+05
 3.9788201e+00   9.2362407e+04
 3.9835000e+00   1.0128665e+05
 3.9881799e+00   5.3519391e+04
 3.9928601e+00   7.8745183e+04
 3.9975400e+00   3.5202144e+04
 4.0022202e+00   4.6586796e+04
 4.0068998e+00   2.5966191e+04
 4.0115800e+00   2.9481843e+04
 4.0162601e+00   1.9116906e+04
 4.0209398e+00   1.9858452e+04
 4.0256200e+00   1.6960970e+04
 4.0303001e+00   1.7256718e+04
 4.0349798e+00   1.5021688e+04
 4.0396600e+00   1.5467111e+04
 4.0443401e+00   1.4616730e+04
 4.0490198e+00   1.3791657e+04
 4.0537000e+00   1.4145992e+04
 4.0583801e+00   1.3051135e+04
 4.0630598e+00   1.3602448e+04
 4.0677400e+00   1.2644747e+04
 4.0724201e+00   1.2820372e+04
 4.0770998e+00   1.2240035e+04
 4.0817800e+00   1.2435702e+04
 4.0864601e+00   1.2167314e+04
 4.0911398e+00   1.2200619e+04
 4.0958200e+00   1.1713241e+04
 4.1005001e+00   1.1663115e+04
 4.1051798e+00   1.1501502e+04
 4.1098599e+00   1.1161320e+04
 4.1145401e+00   1.1438476e+04
 4.1192198e+00   1.1081561e+04
 4.1238999e+00   1.0989358e+04
 4.1285801e+00   1.0816052e+04
 4.1332598e+00   1.0686703e+04
 4.1379399e+00   1.0542309e+04
 4.1426201e+00   1.0740459e+04
 4.1472998e+00   1.0177325e+04
 4.1519799e+00   1.0460258e+04
 4.1566601e+00   1.0132952e+04
 4.1613402e+00   1.0218981e+04
 4.1660199e+00   9.8949981e+03
 4.1707001e+00   1.0068751e+04
 4.1753802e+00   9.7282699e+03
 4.1800599e+00   1.0019770e+04
 4.1847401e+00   9.5818819e+03
 4.1894202e+00   9.8018397e+03
 4.1940999e+00   9.5150986e+03
 4.1987801e+00   9.5984757e+03
 4.2034602e+00   9.5294324e+03
 4.2081399e+00   9.4808867e+03
 4.2128201e+00   9.4156976e+03
 4.2175002e+00   9.4717689e+03
 4.2221799e+00   9.2571675e+03
 4.2268600e+00   9.1861952e+03
 4.2315402e+00   9.2839981e+03
 4.2362199e+00   9.0236271e+03
 4.2409000e+00   9.1614255e+03
 4.2455802e+00   9.0410485e+03
 4.2502599e+00   8.9708573e+03
 4.2549400e+00   8.9522032e+03
 4.2596202e+00   9.1458511e+03
 4.2642999e+00   8.9590174e+03
 4.2689800e+00   9.1436700e+03
 4.2736602e+00   9.0807894e+03
 4.2783399e+00   9.2272213e+03
 4.2830200e+00   9.1213199e+03
 4.2877002e+00   9.3510493e+03
 4.2923799e+00   9.3332983e+03
 4.2970600e+00   9.5506148e+03
 4.3017402e+00   9.4397244e+03
 4.3064198e+00   9.5605133e+03
 4.3111000e+00   9.4109413e+03
 4.3157802e+00   9.5282840e+03
 4.3204598e+00   9.4567933e+03
 4.3251400e+00   9.3603265e+03
 4.3298202e+00   9.3598095e+03
 4.3344998e+00   9.3045161e+03
 4.3391800e+00   9.2443323e+03
 4.3438601e+00   9.3119211e+03
 4.3485398e+00   9.2735602e+03
 4.3532200e+00   9.2248144e+03
 4.3579001e+00   9.2031605e+03
 4.3625798e+00   9.0658057e+03
 4.3672600e+00   9.0178689e+03
 4.3719401e+00   8.9311255e+03
 4.3766198e+00   8.8355286e+03
 4.3813000e+00   8.7677669e+03
 4.3859801e+00   8.6487994e+03
 4.3906598e+00   8.5163258e+03
 4.3953400e+00   8.4590484e+03
 4.4000201e+00   8.3388069e+03
 4.4046998e+00   8.3055287e+03
 4.4093800e+00   8.1673086e+03
 4.4140601e+00   8.0982714e+03
 4.4187398e+00   8.0640331e+03
 4.4234200e+00   7.9913650e+03
 4.4281001e+00   7.8857183e+03
 4.4327798e+00   7.9442016e+03
 4.4374599e+00   7.8258982e+03
 4.4421401e+00   7.7941040e+03
 4.4468198e+00   7.7797968e+03
 4.4514999e+00   7.6997350e+03
 4.4561801e+00   7.7173528e+03
 4.4608598e+00   7.7125100e+03
 4.4655399e+00   7.6463483e+03
 4.4702201e+00   7.6744749e+03
 4.4748998e+00   7.6363516e+03
 4.4795799e+00   7.6040442e+03
 4.4842601e+00   7.6053001e+03
 4.4889398e+00   7.5433805e+03
 4.4936199e+00   7.5283859e+03
 4.4983001e+00   7.4926412e+03
 4.5029802e+00   7.4151876e+03
 4.5076599e+00   7.3869968e+03
 4.5123401e+00   7.3520656e+03
 4.5170202e+00   7.2347001e+03
 4.5216999e+00   7.2335434e+03
 4.5263801e+00   7.1800097e+03
 4.5310602e+00   7.1170341e+03
 4.5357399e+00   7.1154150e+03
 4.5404201e+00   7.0674408e+03
 4.5451002e+00   7.0346763e+03
 4.5497799e+00   7.0323266e+03
 4.5544600e+00   6.9958246e+03
 4.5591402e+00   6.9990551e+03
 4.5638199e+00   6.9630911e+03
 4.5685000e+00   6.9156735e+03
 4.5731802e+00   6.9465076e+03
 4.5778599e+00   6.9249917e+03
 4.5825400e+00   6.9087028e+03
 4.5872202e+00   6.9044594e+03
 4.5918999e+00   6.8639253e+03
 4.5965800e+00   6.8446597e+03
 4.6012602e+00   6.8352085e+03
 4.6059399e+00   6.8278410e+03
 4.6106200e+00   6.8215409e+03
 4.6153002e+00   6.8073213e+03
 4.6199799e+00   6.7731428e+03
 4.6246600e+00   6.7777751e+03
 4.6293402e+00   6.7299677e+03
 4.6340199e+00   6.7288063e+03
 4.6387000e+00   6.7261931e+03
 4.6433802e+00   6.6992044e+03
 4.6480598e+00   6.6810166e+03
 4.6527400e+00   6.6736217e+03
 4.6574202e+00   6.6288704e+03
 4.6620998e+00   6.6651640e+03
 4.6667800e+00   6.6557382e+03
 4.6714602e+00   6.6446356e+03
 4.6761398e+00   6.6177153e+03
 4.6808200e+00   6.6132180e+03
 4.6855001e+00   6.6002929e+03
 4.6901798e+00   6.5977796e+03
 4.6948600e+00   6.6244627e+03
 4.6995401e+00   6.6188882e+03
 4.7042198e+00   6.6358146e+03
 4.7089000e+00   6.6322220e+03
 4.7135801e+00   6.7091577e+03
 4.7182598e+00   6.7375869e+03
 4.7229400e+00   6.8187632e+03
 4.7276201e+00   6.8345520e+03
 4.7322998e+00   6.9217746e+03
 4.7369800e+00   6.9812295e+03
 4.7416601e+00   7.0272123e+03
 4.7463398e+00   7.0955897e+03
 4.7510200e+00   7.1720021e+03
 4.7557001e+00   7.2310395e+03
 4.7603798e+00   7.3197294e+03
 4.7650599e+00   7.4036683e+03
 4.7697401e+00   7.5426624e+03
 4.7744198e+00   7.7120648e+03
 4.7790999e+00   7.8823540e+03
 4.7837801e+00   8.0820320e+03
 4.7884598e+00   8.3244276e+03
 4.7931399e+00   8.5529184e+03
 4.7978201e+00   8.7832035e+03
 4.8024998e+00   8.9824983e+03
 4.8071799e+00   9.1628040e+03
 4.8118601e+00   9.2530781e+03
 4.8165398e+00   9.3011530e+03
 4.8212199e+00   9.3147289e+03
 4.8259001e+00   9.2381900e+03
 4.8305802e+00   9.1419137e+03
 4.8352599e+00   8.9895642e+03
 4.8399401e+00   8.8112358e+03
 4.8446202e+00   8.5798559e+03
 4.8492999e+00   8.3523669e+03
 4.8539801e+00   8.1197131e+03
 4.8586602e+00   7.8867193e+03
 4.8633399e+00   7.6433604e+03
 4.8680201e+00   7.4958484e+03
 4.8727002e+00   7.3370513e+03
 4.8773799e+00   7.2629650e+03
 4.8820601e+00   7.2155798e+03
 4.8867402e+00   7.2092179e+03
 4.8914199e+00   7.2804181e+03
 4.8961000e+00   7.3674797e+03
 4.9007802e+00   7.4675366e+03
 4.9054599e+00   7.6137878e+03
 4.9101400e+00   7.7340934e+03
 4.9148202e+00   7.8640836e+03
 4.9194999e+00   7.9780847e+03
 4.9241800e+00   8.0715893e+03
 4.9288602e+00   8.1452852e+03
 4.9335399e+00   8.2140171e+03
 4.9382200e+00   8.2814889e+03
 4.9429002e+00   8.3288688e+03
 4.9475799e+00   8.4164735e+03
 4.9522600e+00   8.4540867e+03
 4.9569402e+00   8.5223804e+03
 4.9616199e+00   8.5811526e+03
 4.9663000e+00   8.6538618e+03
 4.9709802e+00   8.7053612e+03
 4.9756598e+00   8.7666837e+03
 4.9803400e+00   8.8096629e+03
 4.9850202e+00   8.8258820e+03
 4.9896998e+00   8.7833072e+03
 4.9943800e+00   8.7450536e+03
 4.9990602e+00   8.6433453e+03
 5.0037398e+00   8.5139982e+03
 5.0084200e+00   8.3402960e+03
 5.0131001e+00   8.1406088e+03
 5.0177798e+00   7.9337013e+03
 5.0224600e+00   7.7224209e+03
 5.0271401e+00   7.5132598e+03
 5.0318198e+00   7.3091783e+03
 5.0365000e+00   7.1649261e+03
 5.0411801e+00   6.9899543e+03
 5.0458598e+00   6.8784410e+03
 5.0505400e+00   6.7631513e+03
 5.0552201e+00   6.7068909e+03
 5.0598998e+00   6.6342620e+03
 5.0645800e+00   6.6001862e+03
 5.0692601e+00   6.6051174e+03
 5.0739398e+00   6.6064786e+03
 5.0786200e+00   6.7005088e+03
 5.0833001e+00   6.8207375e+03
 5.0879798e+00   6.9045448e+03
 5.0926600e+00   7.0599015e+03
 5.0973401e+00   7.1930269e+03
 5.1020198e+00   7.5894311e+03
 5.1066999e+00   7.9110863e+03
 5.1113801e+00   7.9684605e+03
 5.1160598e+00   7.7648150e+03
 5.1207399e+00   8.0829307e+03
 5.1254201e+00   8.7792414e+03
 5.1300998e+00   1.0137703e+04
 5.1347799e+00   1.1265521e+04
 5.1394601e+00   1.2720565e+04
 5.1441398e+00   1.3051925e+04
 5.1488199e+00   1.3269740e+04
 5.1535001e+00   1.2207166e+04
 5.1581802e+00   1.1179739e+04
 5.1628599e+00   9.6643523e+03
 5.1675401e+00   8.5945180e+03
 5.1722202e+00   7.6996448e+03
 5.1768999e+00   7.0695644e+03
 5.1815801e+00   6.6959292e+03
 5.1862602e+00   6.6214853e+03
 5.1909399e+00   6.7185422e+03
 5.1956201e+00   6.6020861e+03
 5.2003002e+00   6.5220747e+03
 5.2049799e+00   6.3559180e+03
 5.2096601e+00   6.3257064e+03
 5.2143402e+00   6.2913040e+03
 5.2190199e+00   6.2465904e+03
 5.2237000e+00   6.1873863e+03
 5.2283802e+00   6.1320808e+03
 5.2330599e+00   6.1008221e+03
 5.2377400e+00   6.0709734e+03
 5.2424202e+00   6.0352591e+03
 5.2470999e+00   6.0202919e+03
 5.2517800e+00   6.0287677e+03
 5.2564602e+00   5.9789533e+03
 5.2611399e+00   5.9887407e+03
 5.2658200e+00   5.9619917e+03
 5.2705002e+00   5.9692662e+03
 5.2751799e+00   5.9335875e+03
 5.2798600e+00   5.9415850e+03
 5.2845402e+00   5.9096832e+03
 5.2892199e+00   5.9350908e+03
 5.2939000e+00   5.9218384e+03
 5.2985802e+00   5.8909643e+03
 5.3032598e+00   5.9117575e+03
 5.3079400e+00   5.8846804e+03
 5.3126202e+00   5.9008616e+03
 5.3172998e+00   5.8949507e+03
 5.3219800e+00   5.8811507e+03
 5.3266602e+00   5.8921733e+03
 5.3313398e+00   5.8767748e+03
 5.3360200e+00   5.8582919e+03
 5.3407001e+00   5.8876342e+03
 5.3453798e+00   5.8623243e+03
 5.3500600e+00   5.8596724e+03
 5.3547401e+00   5.8589791e+03
 5.3594198e+00   5.8491524e+03
 5.3641000e+00   5.8850141e+03
 5.3687801e+00   5.8638911e+03
 5.3734598e+00   5.8477365e+03
 5.3781400e+00   5.9005476e+03
 5.3828201e+00   5.8682040e+03
 5.3874998e+00   5.8703910e+03
 5.3921800e+00   5.8933463e+03
 5.3968601e+00   5.8766186e+03
 5.4015398e+00   5.9080072e+03
 5.4062200e+00   5.9198965e+03
 5.4109001e+00   5.9219128e+03
 5.4155798e+00   5.9521064e+03
 5.4202600e+00   5.9467169e+03
 5.4249401e+00   5.9331046e+03
 5.4296198e+00   5.9865006e+03
 5.4342999e+00   5.9904242e+03
 5.4389801e+00   5.9960771e+03
 5.4436598e+00   6.0506853e+03
 5.4483399e+00   6.0454144e+03
 5.4530201e+00   6.0850667e+03
 5.4576998e+00   6.1268914e+03
 5.4623799e+00   6.1521319e+03
 5.4670601e+00   6.2351105e+03
 5.4717398e+00   6.2679297e+03
 5.4764199e+00   6.3349691e+03
 5.4811001e+00   6.4280815e+03
 5.4857798e+00   6.5116440e+03
 5.4904599e+00   6.6318257e+03
 5.4951401e+00   6.7758932e+03
 5.4998202e+00   6.9318442e+03
 5.5044999e+00   7.1833761e+03
 5.5091801e+00   7.4278271e+03
 5.5138602e+00   7.7417651e+03
 5.5185399e+00   8.1729654e+03
 5.5232201e+00   8.6263730e+03
 5.5279002e+00   9.1682116e+03
 5.5325799e+00   9.8248706e+03
 5.5372601e+00   1.0481786e+04
 5.5419402e+00   1.1248977e+04
 5.5466199e+00   1.1910464e+04
 5.5513000e+00   1.2538524e+04
 5.5559802e+00   1.3071924e+04
 5.5606599e+00   1.3397844e+04
 5.5653400e+00   1.3533942e+04
 5.5700202e+00   1.3520283e+04
 5.5746999e+00   1.3306921e+04
 5.5793800e+00   1.3013616e+04
 5.5840602e+00   1.2640446e+04
 5.5887399e+00   1.2137337e+04
 5.5934200e+00   1.1748827e+04
 5.5981002e+00   1.1491805e+04
 5.6027799e+00   1.1208222e+04
 5.6074600e+00   1.0427637e+04
 5.6121402e+00   9.9255738e+03
 5.6168199e+00   9.4367765e+03
 5.6215000e+00   9.0725382e+03
 5.6261802e+00   8.7436944e+03
 5.6308599e+00   8.4627297e+03
 5.6355400e+00   8.2088136e+03
 5.6402202e+00   7.9610040e+03
 5.6448998e+00   7.7526655e+03
 5.6495800e+00   7.5434046e+03
 5.6542602e+00   7.3509124e+03
 5.6589398e+00   7.1946658e+03
 5.6636200e+00   6.9990743e+03
 5.6683002e+00   6.8953293e+03
 5.6729798e+00   6.7553833e+03
 5.6776600e+00   6.6287128e+03
 5.6823401e+00   6.5641463e+03
 5.6870198e+00   6.4516306e+03
 5.6917000e+00   6.3767716e+03
 5.6963801e+00   6.3469922e+03
 5.7010598e+00   6.2582609e+03
 5.7057400e+00   6.2297725e+03
 5.7104201e+00   6.1877625e+03
 5.7150998e+00   6.1346711e+03
 5.7197800e+00   6.1398128e+03
 5.7244601e+00   6.1010299e+03
 5.7291398e+00   6.0686309e+03
 5.7338200e+00   6.0932148e+03
 5.7385001e+00   6.0685621e+03
 5.7431798e+00   6.0822894e+03
 5.7478600e+00   6.0973675e+03
 5.7525401e+00   6.0685872e+03
 5.7572198e+00   6.1043074e+03
 5.7618999e+00   6.0900849e+03
 5.7665801e+00   6.0543157e+03
 5.7712598e+00   6.0923871e+03
 5.7759399e+00   6.0466253e+03
 5.7806201e+00   6.0257005e+03
 5.7852998e+00   6.0334611e+03
 5.7899799e+00   5.9923874e+03
 5.7946601e+00   6.0167794e+03
 5.7993398e+00   6.0040809e+03
 5.8040199e+00   5.9635416e+03
 5.8087001e+00   6.0089325e+03
 5.8133798e+00   5.9784980e+03
 5.8180599e+00   5.9709119e+03
 5.8227401e+00   6.0008150e+03
 5.8274202e+00   5.9911608e+03
 5.8320999e+00   5.9908238e+03
 5.8367801e+00   6.0251091e+03
 5.8414602e+00   5.9923565e+03
 5.8461399e+00   6.0339384e+03
 5.8508201e+00   6.0672334e+03
 5.8555002e+00   6.0554720e+03
 5.8601799e+00   6.1081391e+03
 5.8648601e+00   6.1333830e+03
 5.8695402e+00   6.1756146e+03
 5.8742199e+00   6.2274933e+03
 5.8789001e+00   6.2461006e+03
 5.8835802e+00   6.3213988e+03
 5.8882599e+00   6.3957517e+03
 5.8929400e+00   6.4528601e+03
 5.8976202e+00   6.5738486e+03
 5.9022999e+00   6.6486574e+03
 5.9069800e+00   6.8171600e+03
 5.9116602e+00   7.0781616e+03
 5.9163399e+00   7.3005996e+03
 5.9210200e+00   7.5773399e+03
 5.9257002e+00   7.7717433e+03
 5.9303799e+00   8.3180730e+03
 5.9350600e+00   8.6617275e+03
 5.9397402e+00   9.0689830e+03
 5.9444199e+00   9.1184721e+03
 5.9491000e+00   9.0971299e+03
 5.9537802e+00   8.8511494e+03
 5.9584599e+00   8.6142362e+03
 5.9631400e+00   8.3392080e+03
 5.9678202e+00   8.2416912e+03
 5.9724998e+00   8.1284370e+03
 5.9771800e+00   8.0152004e+03
 5.9818602e+00   7.8943920e+03
 5.9865398e+00   7.8226594e+03
 5.9912200e+00   7.7439286e+03
 5.9959002e+00   7.6447444e+03
 6.0005798e+00   7.5343033e+03
 6.0052600e+00   7.3901615e+03
 6.0099401e+00   7.3068382e+03
 6.0146198e+00   7.1858856e+03
 6.0193000e+00   7.0328688e+03
 6.0239801e+00   6.9695445e+03
 6.0286598e+00   6.8087259e+03
 6.0333400e+00   6.7190501e+03
 6.0380201e+00   6.6339338e+03
 6.0426998e+00   6.5301320e+03
 6.0473800e+00   6.4437993e+03
 6.0520601e+00   6.3945835e+03
 6.0567398e+00   6.2688436e+03
 6.0614200e+00   6.2397397e+03
 6.0661001e+00   6.1921702e+03
 6.0707798e+00   6.1200851e+03
 6.0754600e+00   6.1109235e+03
 6.0801401e+00   6.0547320e+03
 6.0848198e+00   6.0082711e+03
 6.0895000e+00   6.0119611e+03
 6.0941801e+00   5.9609162e+03
 6.0988598e+00   5.9740952e+03
 6.1035399e+00   5.9473352e+03
 6.1082201e+00   5.9180129e+03
 6.1128998e+00   5.9255805e+03
 6.1175799e+00   5.9121227e+03
 6.1222601e+00   5.8908435e+03
 6.1269398e+00   5.8964499e+03
 6.1316199e+00   5.8759609e+03
 6.1363001e+00   5.8798910e+03
 6.1409798e+00   5.8687178e+03
 6.1456599e+00   5.8409353e+03
 6.1503401e+00   5.8681657e+03
 6.1550202e+00   5.8570746e+03
 6.1596999e+00   5.8501712e+03
 6.1643801e+00   5.8658664e+03
 6.1690602e+00   5.8574381e+03
 6.1737399e+00   5.8541948e+03
 6.1784201e+00   5.8744690e+03
 6.1831002e+00   5.8374036e+03
 6.1877799e+00   5.8581642e+03
 6.1924601e+00   5.8462104e+03
 6.1971402e+00   5.8511875e+03
 6.2018199e+00   5.8853313e+03
 6.2065001e+00   5.8580715e+03
 6.2111802e+00   5.8562935e+03
 6.2158599e+00   5.8777194e+03
 6.2205400e+00   5.8518378e+03
 6.2252202e+00   5.8637435e+03
 6.2298999e+00   5.8737938e+03
 6.2345800e+00   5.8513440e+03
 6.2392602e+00   5.8797283e+03
 6.2439399e+00   5.8626066e+03
 6.2486200e+00   5.8637591e+03
 6.2533002e+00   5.8795701e+03
 6.2579799e+00   5.8933659e+03
 6.2626600e+00   5.8777732e+03
 6.2673402e+00   5.9045651e+03
 6.2720199e+00   5.8779272e+03
 6.2767000e+00   5.9047788e+03
 6.2813802e+00   5.8915995e+03
 6.2860599e+00   5.8898739e+03
 6.2907400e+00   5.8945137e+03
 6.2954202e+00   5.9045125e+03
 6.3000998e+00   5.8910015e+03
 6.3047800e+00   5.9293714e+03
 6.3094602e+00   5.9105506e+03
 6.3141398e+00   5.9304382e+03
 6.3188200e+00   5.9302764e+03
 6.3235002e+00   5.9402888e+03
 6.3281798e+00   5.9589907e+03
 6.3328600e+00   5.9495184e+03
 6.3375401e+00   5.9697389e+03
 6.3422198e+00   5.9651533e+03
 6.3469000e+00   5.9591554e+03
 6.3515801e+00   5.9626558e+03
 6.3562598e+00   5.9962914e+03
 6.3609400e+00   5.9659854e+03
 6.3656201e+00   5.9991617e+03
 6.3702998e+00   5.9661042e+03
 6.3749800e+00   5.9868906e+03
 6.3796601e+00   5.9901397e+03
 6.3843398e+00   6.0120327e+03
 6.3890200e+00   5.9909463e+03
 6.3937001e+00   6.0329249e+03
 6.3983798e+00   5.9938157e+03
 6.4030600e+00   6.0382006e+03
 6.4077401e+00   6.0269908e+03
 6.4124198e+00   6.0231774e+03
 6.4171000e+00   6.0722371e+03
 6.4217801e+00   6.0550229e+03
 6.4264598e+00   6.0680708e+03
 6.4311399e+00   6.0860942e+03
 6.4358201e+00   6.1015231e+03
 6.4404998e+00   6.1019012e+03
 6.4451799e+00   6.1473528e+03
 6.4498601e+00   6.1095585e+03
 6.4545398e+00   6.1537174e+03
 6.4592199e+00   6.1224855e+03
 6.4639001e+00   6.1709023e+03
 6.4685798e+00   6.1729343e+03
 6.4732599e+00   6.1979310e+03
 6.4779401e+00   6.1774296e+03
 6.4826198e+00   6.2301063e+03
 6.4872999e+00   6.1939835e+03
 6.4919801e+00   6.2650220e+03
 6.4966602e+00   6.2491028e+03
 6.5013399e+00   6.2466515e+03
 6.5060201e+00   6.2949092e+03
 6.5107002e+00   6.2750930e+03
 6.5153799e+00   6.3286037e+03
 6.5200601e+00   6.3108608e+03
 6.5247402e+00   6.3598296e+03
 6.5294199e+00   6.3072630e+03
 6.5341001e+00   6.4010571e+03
 6.5387802e+00   6.3531904e+03
 6.5434599e+00   6.4095918e+03
 6.5481400e+00   6.3842447e+03
 6.5528202e+00   6.4840457e+03
 6.5574999e+00   6.4261983e+03
 6.5621800e+00   6.4751603e+03
 6.5668602e+00   6.4358969e+03
 6.5715399e+00   6.5460025e+03
 6.5762200e+00   6.4548082e+03
 6.5809002e+00   6.5809559e+03
 6.5855799e+00   6.5097879e+03
 6.5902600e+00   6.5607942e+03
 6.5949402e+00   6.5900050e+03
 6.5996199e+00   6.5969113e+03
 6.6043000e+00   6.6690068e+03
 6.6089802e+00   6.6548101e+03
 6.6136599e+00   6.6731758e+03
 6.6183400e+00   6.6998718e+03
 6.6230202e+00   6.7417792e+03
 6.6276999e+00   6.7143045e+03
 6.6323800e+00   6.8426372e+03
 6.6370602e+00   6.7541652e+03
 6.6417398e+00   6.8507553e+03
 6.6464200e+00   6.8279396e+03
 6.6511002e+00   6.9120252e+03
 6.6557798e+00   6.8758154e+03
 6.6604600e+00   7.0203028e+03
 6.6651402e+00   6.9142187e+03
 6.6698198e+00   7.0168048e+03
 6.6745000e+00   6.9621945e+03
 6.6791801e+00   7.0729151e+03
 6.6838598e+00   7.0700667e+03
 6.6885400e+00   7.0823907e+03
 6.6932201e+00   7.1365471e+03
 6.6978998e+00   7.0991476e+03
 6.7025800e+00   7.1760214e+03
 6.7072601e+00   7.1726328e+03
 6.7119398e+00   7.2160401e+03
 6.7166200e+00   7.2286954e+03
 6.7213001e+00   7.3481557e+03
 6.7259798e+00   7.2397699e+03
 6.7306600e+00   7.3846672e+03
 6.7353401e+00   7.3718795e+03
 6.7400198e+00   7.5184276e+03
 6.7447000e+00   7.4132387e+03
 6.7493801e+00   7.5254491e+03
 6.7540598e+00   7.4658179e+03
 6.7587399e+00   7.6759106e+03
 6.7634201e+00   7.6110574e+03
 6.7680998e+00   7.6834287e+03
 6.7727799e+00   7.7909471e+03
 6.7774601e+00   7.7087298e+03
 6.7821398e+00   7.8660699e+03
 6.7868199e+00   7.8717153e+03
 6.7915001e+00   8.0199382e+03
 6.7961798e+00   7.9891740e+03
 6.8008599e+00   8.1600230e+03
 6.8055401e+00   8.1037329e+03
 6.8102198e+00   8.3613993e+03
 6.8148999e+00   8.4507663e+03
 6.8195801e+00   8.6924709e+03
 6.8242602e+00   8.7579973e+03
 6.8289399e+00   9.2185933e+03
 6.8336201e+00   9.4402212e+03
 6.8383002e+00   1.0252249e+04
 6.8429799e+00   1.1641937e+04
 6.8476601e+00   1.5784186e+04
 6.8523402e+00   1.6577610e+04
 6.8570199e+00   1.8704871e+04
 6.8617001e+00   2.9325866e+04
 6.8663802e+00   3.3114131e+04
 6.8710599e+00   3.9099106e+04
 6.8757401e+00   4.0850121e+04
 6.8804202e+00   3.2866091e+04
 6.8850999e+00   3.5117837e+04
 6.8897800e+00   2.3967211e+04
 6.8944602e+00   2.4684728e+04
 6.8991399e+00   2.0721769e+04
 6.9038200e+00   1.4972258e+04
 6.9085002e+00   1.2172533e+04
 6.9131799e+00   1.1456269e+04
 6.9178600e+00   1.0828384e+04
 6.9225402e+00   1.0363751e+04
 6.9272199e+00   1.0370684e+04
 6.9319000e+00   1.0010855e+04
 6.9365802e+00   9.8986545e+03
 6.9412599e+00   9.7047832e+03
 6.9459400e+00   9.5969645e+03
 6.9506202e+00   9.7594707e+03
 6.9552999e+00   9.5666661e+03
 6.9599800e+00   9.6089586e+03
 6.9646602e+00   9.3537581e+03
 6.9693398e+00   9.3117015e+03
 6.9740200e+00   9.2911746e+03
 6.9787002e+00   9.3870033e+03
 6.9833798e+00   9.1308099e+03
 6.9880600e+00   9.3048582e+03
 6.9927402e+00   9.0132429e+03
 6.9974198e+00   9.1098760e+03
 7.0021000e+00   8.9392789e+03
 7.0067801e+00   9.0745048e+03
 7.0114598e+00   8.9266469e+03
 7.0161400e+00   8.8926026e+03
 7.0208201e+00   8.7595867e+03
 7.0254998e+00   8.7410440e+03
 7.0301800e+00   8.6607676e+03
 7.0348601e+00   8.6081521e+03
 7.0395398e+00   8.5554445e+03
 7.0442200e+00   8.3598162e+03
 7.0489001e+00   8.3996882e+03
 7.0535798e+00   8.2232241e+03
 7.0582600e+00   8.2541555e+03
 7.0629401e+00   8.1841146e+03
 7.0676198e+00   8.1184568e+03
 7.0723000e+00   7.9700382e+03
 7.0769801e+00   7.9030701e+03
 7.0816598e+00   7.7232189e+03
 7.0863400e+00   7.8099845e+03
 7.0910201e+00   7.5621486e+03
 7.0956998e+00   7.5873686e+03
 7.1003799e+00   7.4721588e+03
 7.1050601e+00   7.4202092e+03
 7.1097398e+00   7.3378347e+03
 7.1144199e+00   7.3553190e+03
 7.1191001e+00   7.2837061e+03
 7.1237798e+00   7.2605191e+03
 7.1284599e+00   7.2185042e+03
 7.1331401e+00   7.1730814e+03
 7.1378198e+00   7.1810100e+03
 7.1424999e+00   7.1278257e+03
 7.1471801e+00   7.1359425e+03
 7.1518602e+00   7.0919248e+03
 7.1565399e+00   7.0880567e+03
 7.1612201e+00   7.0392739e+03
 7.1659002e+00   7.0570510e+03
 7.1705799e+00   6.9735521e+03
 7.1752601e+00   7.0637520e+03
 7.1799402e+00   6.9410283e+03
 7.1846199e+00   6.9929808e+03
 7.1893001e+00   6.9516416e+03
 7.1939802e+00   6.9822563e+03
 7.1986599e+00   6.9149968e+03
 7.2033401e+00   6.9329348e+03
 7.2080202e+00   6.8948625e+03
 7.2126999e+00   6.9085243e+03
 7.2173800e+00   6.8750734e+03
 7.2220602e+00   6.8785785e+03
 7.2267399e+00   6.8848367e+03
 7.2314200e+00   6.8485730e+03
 7.2361002e+00   6.8786290e+03
 7.2407799e+00   6.8510281e+03
 7.2454600e+00   6.8611901e+03
 7.2501402e+00   6.8798096e+03
 7.2548199e+00   6.8794343e+03
 7.2595000e+00   6.8412274e+03
 7.2641802e+00   6.9066828e+03
 7.2688599e+00   6.8419412e+03
 7.2735400e+00   6.8952614e+03
 7.2782202e+00   6.8461042e+03
 7.2828999e+00   6.8744778e+03
 7.2875800e+00   6.8497375e+03
 7.2922602e+00   6.8314132e+03
 7.2969398e+00   6.8128737e+03
 7.3016200e+00   6.8427697e+03
 7.3063002e+00   6.8077716e+03
 7.3109798e+00   6.8222226e+03
 7.3156600e+00   6.8362465e+03
 7.3203402e+00   6.8253866e+03
 7.3250198e+00   6.8576574e+03
 7.3297000e+00   6.8454548e+03
 7.3343801e+00   6.8685789e+03
 7.3390598e+00   6.8783198e+03
 7.3437400e+00   6.8976959e+03
 7.3484201e+00   6.8887571e+03
 7.3530998e+00   6.9210540e+03
 7.3577800e+00   6.9005499e+03
 7.3624601e+00   6.9294729e+03
 7.3671398e+00   6.9192833e+03
 7.3718200e+00   6.9519659e+03
 7.3765001e+00   6.9528820e+03
 7.3811798e+00   6.9475186e+03
 7.3858600e+00   6.9465202e+03
 7.3905401e+00   6.9573612e+03
 7.3952198e+00   6.9604865e+03
 7.3999000e+00   6.9623020e+03
 7.4045801e+00   6.9711111e+03
 7.4092598e+00   6.9698899e+03
 7.4139400e+00   6.9994815e+03
 7.4186201e+00   6.9945658e+03
 7.4232998e+00   7.0267161e+03
 7.4279799e+00   7.0282828e+03
 7.4326601e+00   7.0575638e+03
 7.4373398e+00   7.0669532e+03
 7.4420199e+00   7.0857327e+03
 7.4467001e+00   7.0990103e+03
 7.4513798e+00   7.1337744e+03
 7.4560599e+00   7.1438357e+03
 7.4607401e+00   7.1579340e+03
 7.4654198e+00   7.1826606e+03
 7.4700999e+00   7.2059696e+03
 7.4747801e+00   7.2347310e+03
 7.4794598e+00   7.2198888e+03
 7.4841399e+00   7.2666154e+03
 7.4888201e+00   7.2776981e+03
 7.4935002e+00   7.2989567e+03
 7.4981799e+00   7.2941242e+03
 7.5028601e+00   7.3362095e+03
 7.5075402e+00   7.3447551e+03
 7.5122199e+00   7.3890872e+03
 7.5169001e+00   7.3918188e+03
 7.5215802e+00   7.4114498e+03
 7.5262599e+00   7.4626908e+03
 7.5309401e+00   7.4539460e+03
 7.5356202e+00   7.4987116e+03
 7.5402999e+00   7.5168150e+03
 7.5449800e+00   7.5330252e+03
 7.5496602e+00   7.5438358e+03
 7.5543399e+00   7.5576239e+03
 7.5590200e+00   7.5607191e+03
 7.5637002e+00   7.5945505e+03
 7.5683799e+00   7.5666906e+03
 7.5730600e+00   7.5799643e+03
 7.5777402e+00   7.5596490e+03
 7.5824199e+00   7.5520141e+03
 7.5871000e+00   7.5124088e+03
 7.5917802e+00   7.5097807e+03
 7.5964599e+00   7.4748191e+03
 7.6011400e+00   7.4500491e+03
 7.6058202e+00   7.3455285e+03
 7.6104999e+00   7.2983824e+03
 7.6151800e+00   7.2303622e+03
 7.6198602e+00   7.1104778e+03
 7.6245399e+00   7.0520068e+03
 7.6292200e+00   6.9300492e+03
 7.6339002e+00   6.8796779e+03
 7.6385798e+00   6.7731848e+03
 7.6432600e+00   6.7406604e+03
 7.6479402e+00   6.6570293e+03
 7.6526198e+00   6.6318007e+03
 7.6573000e+00   6.5581829e+03
 7.6619802e+00   6.5462898e+03
 7.6666598e+00   6.4905183e+03
 7.6713400e+00   6.5051391e+03
 7.6760201e+00   6.4405583e+03
 7.6806998e+00   6.4692272e+03
 7.6853800e+00   6.4228856e+03
 7.6900601e+00   6.4321510e+03
 7.6947398e+00   6.4048854e+03
 7.6994200e+00   6.4065568e+03
 7.7041001e+00   6.4031659e+03
 7.7087798e+00   6.3842488e+03
 7.7134600e+00   6.3878795e+03
 7.7181401e+00   6.3528920e+03
 7.7228198e+00   6.4025067e+03
 7.7275000e+00   6.3641912e+03
 7.7321801e+00   6.3863141e+03
 7.7368598e+00   6.3468662e+03
 7.7415400e+00   6.4021657e+03
 7.7462201e+00   6.3508085e+03
 7.7508998e+00   6.3995423e+03
 7.7555799e+00   6.3358547e+03
 7.7602601e+00   6.4075159e+03
 7.7649398e+00   6.3281622e+03
 7.7696199e+00   6.3995760e+03
 7.7743001e+00   6.3688635e+03
 7.7789798e+00   6.3922939e+03
 7.7836599e+00   6.3949455e+03
 7.7883401e+00   6.3665371e+03
 7.7930198e+00   6.3985197e+03
 7.7976999e+00   6.3906300e+03
 7.8023801e+00   6.4151644e+03
 7.8070598e+00   6.4039653e+03
 7.8117399e+00   6.4246976e+03
 7.8164201e+00   6.3684045e+03
 7.8211002e+00   6.4566841e+03
 7.8257799e+00   6.3744279e+03
 7.8304601e+00   6.4919525e+03
 7.8351402e+00   6.4250068e+03
 7.8398199e+00   6.5068947e+03
 7.8445001e+00   6.3973523e+03
 7.8491802e+00   6.5083431e+03
 7.8538599e+00   6.4317785e+03
 7.8585401e+00   6.6039592e+03
 7.8632202e+00   6.4733120e+03
 7.8678999e+00   6.5494404e+03
 7.8725801e+00   6.5429288e+03
 7.8772602e+00   6.5927981e+03
 7.8819399e+00   6.6442687e+03
 7.8866200e+00   6.7066153e+03
 7.8913002e+00   6.7759287e+03
 7.8959799e+00   6.6743868e+03
 7.9006600e+00   7.0964364e+03
 7.9053402e+00   6.8532158e+03
 7.9100199e+00   8.1757247e+03
 7.9147000e+00   7.7631832e+03
 7.9193802e+00   9.5319293e+03
 7.9240599e+00   8.7232360e+03
 7.9287400e+00   1.5587816e+04
 7.9334202e+00   1.1848907e+04
 7.9380999e+00   2.8323336e+04
 7.9427800e+00   1.6246873e+04
 7.9474602e+00   2.6097368e+04
 7.9521399e+00   1.7365257e+04
 7.9568200e+00   2.0260650e+04
 7.9615002e+00   1.3464042e+04
 7.9661798e+00   1.0041492e+04
 7.9708600e+00   8.7263172e+03
 7.9755402e+00   7.4702922e+03
 7.9802198e+00   7.3368443e+03
 7.9849000e+00   6.8956841e+03
 7.9895802e+00   6.9262865e+03
 7.9942598e+00   6.6169397e+03
 7.9989400e+00   6.6028845e+03
 8.0036201e+00   6.4231603e+03
 8.0082998e+00   6.4766531e+03
 8.0129805e+00   6.3720194e+03
 8.0176601e+00   6.4719787e+03
 8.0223398e+00   6.2860729e+03
 8.0270205e+00   6.3496807e+03
 8.0317001e+00   6.2087006e+03
 8.0363798e+00   6.3208938e+03
 8.0410604e+00   6.2584230e+03
 8.0457401e+00   6.2618677e+03
 8.0504198e+00   6.2253133e+03
 8.0551004e+00   6.2080679e+03
 8.0597801e+00   6.2280543e+03
 8.0644598e+00   6.1942959e+03
 8.0691404e+00   6.2981237e+03
 8.0738201e+00   6.2306846e+03
 8.0784998e+00   6.2970277e+03
 8.0831804e+00   6.2670125e+03
 8.0878601e+00   6.3643041e+03
 8.0925398e+00   6.3130711e+03
 8.0972204e+00   6.4369903e+03
 8.1019001e+00   6.3714905e+03
 8.1065798e+00   6.4722949e+03
 8.1112604e+00   6.4078574e+03
 8.1159401e+00   6.4900425e+03
 8.1206198e+00   6.4568465e+03
 8.1253004e+00   6.4720698e+03
 8.1299801e+00   6.4619343e+03
 8.1346598e+00   6.4496071e+03
 8.1393404e+00   6.4413170e+03
 8.1440201e+00   6.4219834e+03
 8.1486998e+00   6.4909543e+03
 8.1533804e+00   6.4250776e+03
 8.1580601e+00   6.4890712e+03
 8.1627398e+00   6.4531731e+03
 8.1674204e+00   6.5229423e+03
 8.1721001e+00   6.4976810e+03
 8.1767797e+00   6.6015117e+03
 8.1814604e+00   6.5890607e+03
 8.1861401e+00   6.6989362e+03
 8.1908197e+00   6.6982153e+03
 8.1955004e+00   6.8139101e+03
 8.2001801e+00   6.8597924e+03
 8.2048597e+00   6.9602864e+03
 8.2095404e+00   7.0303239e+03
 8.2142200e+00   7.1335934e+03
 8.2188997e+00   7.2330269e+03
 8.2235804e+00   7.2873967e+03
 8.2282600e+00   7.4058794e+03
 8.2329397e+00   7.4437033e+03
 8.2376204e+00   7.5119704e+03
 8.2423000e+00   7.5257559e+03
 8.2469797e+00   7.5841877e+03
 8.2516603e+00   7.5498785e+03
 8.2563400e+00   7.5703648e+03
 8.2610197e+00   7.5074342e+03
 8.2657003e+00   7.4830119e+03
 8.2703800e+00   7.4234238e+03
 8.2750597e+00   7.3847525e+03
 8.2797403e+00   7.3058264e+03
 8.2844200e+00   7.2456928e+03
 8.2890997e+00   7.1558496e+03
 8.2937803e+00   7.0614951e+03
 8.2984600e+00   6.9972464e+03
 8.3031397e+00   6.8599826e+03
 8.3078203e+00   6.7646923e+03
 8.3125000e+00   6.6138921e+03
 8.3171797e+00   6.5257330e+03
 8.3218603e+00   6.3751524e+03
 8.3265400e+00   6.3019192e+03
 8.3312197e+00   6.1917525e+03
 8.3359003e+00   6.1043279e+03
 8.3405800e+00   5.9989187e+03
 8.3452597e+00   5.9505798e+03
 8.3499403e+00   5.8938488e+03
 8.3546200e+00   5.8862164e+03
 8.3592997e+00   5.8543796e+03
 8.3639803e+00   5.8803654e+03
 8.3686600e+00   5.9537481e+03
 8.3733397e+00   6.0917022e+03
 8.3780203e+00   6.3370056e+03
 8.3827000e+00   6.7295228e+03
 8.3873796e+00   7.1559402e+03
 8.3920603e+00   7.8543992e+03
 8.3967400e+00   8.6289001e+03
 8.4014196e+00   9.2846613e+03
 8.4061003e+00   9.8714970e+03
 8.4107800e+00   9.7583629e+03
 8.4154596e+00   9.2043604e+03
 8.4201403e+00   8.6943455e+03
 8.4248199e+00   7.8283107e+03
 8.4294996e+00   7.2306064e+03
 8.4341803e+00   6.7979154e+03
 8.4388599e+00   6.5106483e+03
 8.4435396e+00   6.3268150e+03
 8.4482203e+00   6.1685238e+03
 8.4528999e+00   6.1123113e+03
 8.4575796e+00   6.1149232e+03
 8.4622602e+00   6.1064074e+03
 8.4669399e+00   6.1350371e+03
 8.4716196e+00   6.1498180e+03
 8.4763002e+00   6.1895062e+03
 8.4809799e+00   6.2112768e+03
 8.4856596e+00   6.2573693e+03
 8.4903402e+00   6.2737077e+03
 8.4950199e+00   6.3346227e+03
 8.4996996e+00   6.3434774e+03
 8.5043802e+00   6.3841226e+03
 8.5090599e+00   6.4024604e+03
 8.5137396e+00   6.4406586e+03
 8.5184202e+00   6.4424435e+03
 8.5230999e+00   6.4899137e+03
 8.5277796e+00   6.5095283e+03
 8.5324602e+00   6.5306999e+03
 8.5371399e+00   6.5484745e+03
 8.5418196e+00   6.5831137e+03
 8.5465002e+00   6.5841309e+03
 8.5511799e+00   6.6014353e+03
 8.5558596e+00   6.6305382e+03
 8.5605402e+00   6.5941474e+03
 8.5652199e+00   6.6143135e+03
 8.5698996e+00   6.5613224e+03
 8.5745802e+00   6.5522448e+03
 8.5792599e+00   6.5221222e+03
 8.5839396e+00   6.4966874e+03
 8.5886202e+00   6.4305812e+03
 8.5932999e+00   6.4172370e+03
 8.5979795e+00   6.3508073e+03
 8.6026602e+00   6.3119074e+03
 8.6073399e+00   6.2515123e+03
 8.6120195e+00   6.2110693e+03
 8.6167002e+00   6.1665321e+03
 8.6213799e+00   6.0971470e+03
 8.6260595e+00   6.0687090e+03
 8.6307402e+00   5.9959215e+03
 8.6354198e+00   5.9645137e+03
 8.6400995e+00   5.9259938e+03
 8.6447802e+00   5.8880872e+03
 8.6494598e+00   5.8312840e+03
 8.6541405e+00   5.8195475e+03
 8.6588202e+00   5.7752584e+03
 8.6634998e+00   5.7611642e+03
 8.6681805e+00   5.7364371e+03
 8.6728601e+00   5.7185493e+03
 8.6775398e+00   5.7015617e+03
 8.6822205e+00   5.6855290e+03
 8.6869001e+00   5.6680872e+03
 8.6915798e+00   5.6609595e+03
 8.6962605e+00   5.6555919e+03
 8.7009401e+00   5.6501853e+03
 8.7056198e+00   5.6407461e+03
 8.7103004e+00   5.6265478e+03
 8.7149801e+00   5.6276301e+03
 8.7196598e+00   5.6098537e+03
 8.7243404e+00   5.6093346e+03
 8.7290201e+00   5.6042148e+03
 8.7336998e+00   5.5887467e+03
 8.7383804e+00   5.5851863e+03
 8.7430601e+00   5.5828502e+03
 8.7477398e+00   5.5774433e+03
 8.7524204e+00   5.5736328e+03
 8.7571001e+00   5.5460002e+03
 8.7617798e+00   5.5520190e+03
 8.7664604e+00   5.5441223e+03
 8.7711401e+00   5.5305116e+03
 8.7758198e+00   5.5184695e+03
 8.7805004e+00   5.5171714e+03
 8.7851801e+00   5.5054039e+03
 8.7898598e+00   5.4932922e+03
 8.7945404e+00   5.4893202e+03
 8.7992201e+00   5.4599613e+03
 8.8038998e+00   5.4603568e+03
 8.8085804e+00   5.4456611e+03
 8.8132601e+00   5.4496476e+03
 8.8179398e+00   5.4559644e+03
 8.8226204e+00   5.4463058e+03
 8.8273001e+00   5.4266207e+03
 8.8319798e+00   5.4982180e+03
 8.8366604e+00   5.4970016e+03
 8.8413401e+00   5.6463786e+03
 8.8460197e+00   5.8114665e+03
 8.8507004e+00   6.2022305e+03
 8.8553801e+00   6.3477980e+03
 8.8600597e+00   7.0141584e+03
 8.8647404e+00   6.4142467e+03
 8.8694201e+00   7.8755605e+03
 8.8740997e+00   6.8299734e+03
 8.8787804e+00   6.3226887e+03
 8.8834600e+00   6.6664860e+03
 8.8881397e+00   5.9268106e+03
 8.8928204e+00   5.6053547e+03
 8.8975000e+00   5.4706618e+03
 8.9021797e+00   5.2993934e+03
 8.9068604e+00   5.2026597e+03
 8.9115400e+00   5.1698438e+03
 8.9162197e+00   5.1208729e+03
 8.9209003e+00   5.1236296e+03
 8.9255800e+00   5.1183599e+03
 8.9302597e+00   5.0883502e+03
 8.9349403e+00   5.0791961e+03
 8.9396200e+00   5.0635788e+03
 8.9442997e+00   5.0791572e+03
 8.9489803e+00   5.0549306e+03
 8.9536600e+00   5.0719093e+03
 8.9583397e+00   5.0612433e+03
 8.9630203e+00   5.0693105e+03
 8.9677000e+00   5.0558083e+03
 8.9723797e+00   5.0621218e+03
 8.9770603e+00   5.0557354e+03
 8.9817400e+00   5.0631989e+03
 8.9864197e+00   5.0556039e+03
 8.9911003e+00   5.0516538e+03
 8.9957800e+00   5.0494717e+03
 9.0004597e+00   5.0379534e+03
 9.0051403e+00   5.0412341e+03
 9.0098200e+00   5.0409070e+03
 9.0144997e+00   5.0494159e+03
 9.0191803e+00   5.0313341e+03
 9.0238600e+00   5.0164987e+03
 9.0285397e+00   5.0053527e+03
 9.0332203e+00   4.9940309e+03
 9.0379000e+00   4.9920740e+03
 9.0425797e+00   4.9800145e+03
 9.0472603e+00   4.9749818e+03
 9.0519400e+00   4.9787008e+03
 9.0566196e+00   4.9634606e+03
 9.0613003e+00   4.9724468e+03
 9.0659800e+00   4.9758479e+03
 9.0706596e+00   4.9773108e+03
 9.0753403e+00   4.9737682e+03
 9.0800200e+00   4.9760983e+03
 9.0846996e+00   4.9672303e+03
 9.0893803e+00   4.9707910e+03
 9.0940599e+00   4.9702927e+03
 9.0987396e+00   4.9640038e+03
 9.1034203e+00   4.9710302e+03
 9.1080999e+00   4.9753075e+03
 9.1127796e+00   4.9685459e+03
 9.1174603e+00   4.9807485e+03
 9.1221399e+00   4.9817889e+03
 9.1268196e+00   4.9927371e+03
 9.1315002e+00   5.0046194e+03
 9.1361799e+00   4.9867438e+03
 9.1408596e+00   5.0106622e+03
 9.1455402e+00   5.0053613e+03
 9.1502199e+00   5.0199722e+03
 9.1548996e+00   5.0267030e+03
 9.1595802e+00   5.0241019e+03
 9.1642599e+00   5.0418012e+03
 9.1689396e+00   5.0487165e+03
 9.1736202e+00   5.0585031e+03
 9.1782999e+00   5.0764189e+03
 9.1829796e+00   5.0846413e+03
 9.1876602e+00   5.0941479e+03
 9.1923399e+00   5.1142077e+03
 9.1970196e+00   5.1219154e+03
 9.2017002e+00   5.1485143e+03
 9.2063799e+00   5.1457619e+03
 9.2110596e+00   5.1805618e+03
 9.2157402e+00   5.2160040e+03
 9.2204199e+00   5.2243017e+03
 9.2250996e+00   5.2595058e+03
 9.2297802e+00   5.2809276e+03
 9.2344599e+00   5.3020559e+03
 9.2391396e+00   5.3388538e+03
 9.2438202e+00   5.3599164e+03
 9.2484999e+00   5.3924062e+03
 9.2531796e+00   5.4332387e+03
 9.2578602e+00   5.4632155e+03
 9.2625399e+00   5.4989859e+03
 9.2672195e+00   5.5377840e+03
 9.2719002e+00   5.5684550e+03
 9.2765799e+00   5.5984801e+03
 9.2812595e+00   5.6207546e+03
 9.2859402e+00   5.6426855e+03
 9.2906199e+00   5.6710307e+03
 9.2952995e+00   5.6867892e+03
 9.2999802e+00   5.7034109e+03
 9.3046598e+00   5.7193545e+03
 9.3093395e+00   5.7165432e+03
 9.3140202e+00   5.7370307e+03
 9.3186998e+00   5.7335578e+03
 9.3233805e+00   5.7397650e+03
 9.3280602e+00   5.7387454e+03
 9.3327398e+00   5.7433530e+03
 9.3374205e+00   5.7343790e+03
 9.3421001e+00   5.7235393e+03
 9.3467798e+00   5.7277341e+03
 9.3514605e+00   5.7139409e+03
 9.3561401e+00   5.6970283e+03
 9.3608198e+00   5.6779338e+03
 9.3655005e+00   5.6627630e+03
 9.3701801e+00   5.6303068e+03
 9.3748598e+00   5.6008244e+03
 9.3795404e+00   5.5858212e+03
 9.3842201e+00   5.5500296e+03
 9.3888998e+00   5.5267793e+03
 9.3935804e+00   5.5023567e+03
 9.3982601e+00   5.4578457e+03
 9.4029398e+00   5.4357848e+03
 9.4076204e+00   5.4041401e+03
 9.4123001e+00   5.3822942e+03
 9.4169798e+00   5.3644180e+03
 9.4216604e+00   5.3457860e+03
 9.4263401e+00   5.3363394e+03
 9.4310198e+00   5.2960877e+03
 9.4357004e+00   5.2857979e+03
 9.4403801e+00   5.2845451e+03
 9.4450598e+00   5.2583266e+03
 9.4497404e+00   5.2639827e+03
 9.4544201e+00   5.2559484e+03
 9.4590998e+00   5.2451633e+03
 9.4637804e+00   5.2657336e+03
 9.4684601e+00   5.2531868e+03
 9.4731398e+00   5.2690623e+03
 9.4778204e+00   5.2745328e+03
 9.4825001e+00   5.2729733e+03
 9.4871798e+00   5.2871208e+03
 9.4918604e+00   5.2909130e+03
 9.4965401e+00   5.2914653e+03
 9.5012197e+00   5.3011193e+03
 9.5059004e+00   5.2953677e+03
 9.5105801e+00   5.2912972e+03
 9.5152597e+00   5.2972114e+03
 9.5199404e+00   5.2896591e+03
 9.5246201e+00   5.2882992e+03
 9.5292997e+00   5.2948725e+03
 9.5339804e+00   5.2932183e+03
 9.5386600e+00   5.3074391e+03
 9.5433397e+00   5.2962473e+03
 9.5480204e+00   5.3075227e+03
 9.5527000e+00   5.3055450e+03
 9.5573797e+00   5.3139449e+03
 9.5620604e+00   5.3185620e+03
 9.5667400e+00   5.3221222e+03
 9.5714197e+00   5.3316378e+03
 9.5761003e+00   5.3436210e+03
 9.5807800e+00   5.3344875e+03
 9.5854597e+00   5.3411666e+03
 9.5901403e+00   5.3559484e+03
 9.5948200e+00   5.3567154e+03
 9.5994997e+00   5.3627293e+03
 9.6041803e+00   5.3718763e+03
 9.6088600e+00   5.3774631e+03
 9.6135397e+00   5.3843497e+03
 9.6182203e+00   5.3795168e+03
 9.6229000e+00   5.3701777e+03
 9.6275797e+00   5.3805123e+03
 9.6322603e+00   5.3636425e+03
 9.6369400e+00   5.3710093e+03
 9.6416197e+00   5.3725810e+03
 9.6463003e+00   5.3357419e+03
 9.6509800e+00   5.3469828e+03
 9.6556597e+00   5.3455554e+03
 9.6603403e+00   5.3486697e+03
 9.6650200e+00   5.3514682e+03
 9.6696997e+00   5.3546132e+03
 9.6743803e+00   5.3732961e+03
 9.6790600e+00   5.3979136e+03
 9.6837397e+00   5.4060034e+03
 9.6884203e+00   5.4814457e+03
 9.6931000e+00   5.5024836e+03
 9.6977797e+00   5.5519713e+03
 9.7024603e+00   5.9582911e+03
 9.7071400e+00   6.1075066e+03
 9.7118196e+00   5.9884193e+03
 9.7165003e+00   6.4260870e+03
 9.7211800e+00   6.0828874e+03
 9.7258596e+00   5.9564895e+03
 9.7305403e+00   5.8186281e+03
 9.7352200e+00   5.5478310e+03
 9.7398996e+00   5.5554233e+03
 9.7445803e+00   5.3638262e+03
 9.7492599e+00   5.2798095e+03
 9.7539396e+00   5.2956857e+03
 9.7586203e+00   5.2011750e+03
 9.7632999e+00   5.1842939e+03
 9.7679796e+00   5.1747602e+03
 9.7726603e+00   5.1623763e+03
 9.7773399e+00   5.1859627e+03
 9.7820196e+00   5.1739729e+03
 9.7867002e+00   5.2021865e+03
 9.7913799e+00   5.2276538e+03
 9.7960596e+00   5.2521910e+03
 9.8007402e+00   5.2821006e+03
 9.8054199e+00   5.3447948e+03
 9.8100996e+00   5.4141790e+03
 9.8147802e+00   5.4988264e+03
 9.8194599e+00   5.6422484e+03
 9.8241396e+00   5.8071073e+03
 9.8288202e+00   5.9827403e+03
 9.8334999e+00   6.5863959e+03
 9.8381796e+00   7.1340650e+03
 9.8428602e+00   7.9425732e+03
 9.8475399e+00   9.0281007e+03
 9.8522196e+00   1.0001685e+04
 9.8569002e+00   1.1318314e+04
 9.8615799e+00   1.1845104e+04
 9.8662596e+00   1.2078154e+04
 9.8709402e+00   1.1304197e+04
 9.8756199e+00   1.0323685e+04
 9.8802996e+00   9.1589026e+03
 9.8849802e+00   7.9187769e+03
 9.8896599e+00   7.1593125e+03
 9.8943396e+00   6.7092329e+03
 9.8990202e+00   6.2946570e+03
 9.9036999e+00   5.9887039e+03
 9.9083796e+00   5.8089473e+03
 9.9130602e+00   5.6797949e+03
 9.9177399e+00   5.6180498e+03
 9.9224195e+00   5.5627152e+03
 9.9271002e+00   5.5463052e+03
 9.9317799e+00   5.5168984e+03
 9.9364595e+00   5.5062196e+03
 9.9411402e+00   5.4845814e+03
 9.9458199e+00   5.4716435e+03
 9.9504995e+00   5.4807313e+03
 9.9551802e+00   5.4785482e+03
 9.9598598e+00   5.4596238e+03
 9.9645395e+00   5.4559988e+03
 9.9692202e+00   5.4519641e+03
 9.9738998e+00   5.4475219e+03
 9.9785805e+00   5.4324230e+03
 9.9832602e+00   5.4348281e+03
 9.9879398e+00   5.4304065e+03
 9.9926205e+00   5.4228635e+03
 9.9973001e+00   5.4292351e+03
 1.0001980e+01   5.4227687e+03
 1.0006660e+01   5.4060340e+03
 1.0011340e+01   5.3923952e+03
 1.0016020e+01   5.3867315e+03
 1.0020700e+01   5.3794775e+03
 1.0025380e+01   5.3470389e+03
 1.0030060e+01   5.3341941e+03
 1.0034740e+01   5.3166897e+03
 1.0039420e+01   5.3058430e+03
 1.0044100e+01   5.2891076e+03
 1.0048780e+01   5.2871037e+03
 1.0053460e+01   5.2725518e+03
 1.0058140e+01   5.2650540e+03
 1.0062820e+01   5.2447556e+03
 1.0067500e+01   5.2409319e+03
 1.0072180e+01   5.2238977e+03
 1.0076860e+01   5.2308002e+03
 1.0081540e+01   5.2204591e+03
 1.0086220e+01   5.2139077e+03
 1.0090900e+01   5.2018045e+03
 1.0095580e+01   5.2035131e+03
 1.0100260e+01   5.1981360e+03
 1.0104940e+01   5.2057389e+03
 1.0109620e+01   5.2031919e+03
 1.0114300e+01   5.2016061e+03
 1.0118980e+01   5.2114235e+03
 1.0123660e+01   5.2051254e+03
 1.0128340e+01   5.2103684e+03
 1.0133020e+01   5.2123880e+03
 1.0137700e+01   5.2331219e+03
 1.0142380e+01   5.2303312e+03
 1.0147060e+01   5.2396024e+03
 1.0151740e+01   5.2460174e+03
 1.0156420e+01   5.2512985e+03
 1.0161100e+01   5.2599968e+03
 1.0165780e+01   5.2598049e+03
 1.0170460e+01   5.2772117e+03
 1.0175140e+01   5.2945718e+03
 1.0179820e+01   5.2928190e+03
 1.0184500e+01   5.3035277e+03
 1.0189180e+01   5.2976115e+03
 1.0193860e+01   5.3349524e+03
 1.0198540e+01   5.3468697e+03
 1.0203220e+01   5.3494840e+03
 1.0207900e+01   5.3729453e+03
 1.0212580e+01   5.3680642e+03
 1.0217260e+01   5.3855266e+03
 1.0221940e+01   5.3838840e+03
 1.0226620e+01   5.4014451e+03
 1.0231300e+01   5.4309686e+03
 1.0235980e+01   5.4220274e+03
 1.0240660e+01   5.4273926e+03
 1.0245340e+01   5.4322072e+03
 1.0250020e+01   5.4237408e+03
 1.0254700e+01   5.4740843e+03
 1.0259380e+01   5.4896804e+03
 1.0264060e+01   5.5609159e+03
 1.0268740e+01   5.6668968e+03
 1.0273420e+01   5.7191253e+03
 1.0278100e+01   5.6036779e+03
 1.0282780e+01   5.5742482e+03
 1.0287460e+01   5.6929651e+03
 1.0292140e+01   5.8372137e+03
 1.0296820e+01   5.8961416e+03
 1.0301500e+01   5.9630246e+03
 1.0306180e+01   5.9797184e+03
 1.0310860e+01   5.8863055e+03
 1.0315540e+01   5.8226439e+03
 1.0320220e+01   5.6730864e+03
 1.0324900e+01   5.7913692e+03
 1.0329580e+01   5.8818045e+03
 1.0334260e+01   5.6201747e+03
 1.0338940e+01   5.4523274e+03
 1.0343620e+01   5.3903250e+03
 1.0348300e+01   5.3153573e+03
 1.0352980e+01   5.2738416e+03
 1.0357660e+01   5.2427395e+03
 1.0362340e+01   5.2097052e+03
 1.0367020e+01   5.2345804e+03
 1.0371700e+01   5.2039472e+03
 1.0376380e+01   5.2133533e+03
 1.0381060e+01   5.2292665e+03
 1.0385740e+01   5.1972862e+03
 1.0390420e+01   5.2231088e+03
 1.0395100e+01   5.2091002e+03
 1.0399780e+01   5.2059201e+03
 1.0404460e+01   5.2372458e+03
 1.0409140e+01   5.2256626e+03
 1.0413820e+01   5.2291111e+03
 1.0418500e+01   5.2497397e+03
 1.0423180e+01   5.2417687e+03
 1.0427860e+01   5.2566683e+03
 1.0432540e+01   5.2507988e+03
 1.0437220e+01   5.2571015e+03
 1.0441900e+01   5.3117839e+03
 1.0446580e+01   5.2920414e+03
 1.0451260e+01   5.3172630e+03
 1.0455940e+01   5.3481639e+03
 1.0460620e+01   5.3626299e+03
 1.0465300e+01   5.3889008e+03
 1.0469980e+01   5.5143327e+03
 1.0474660e+01   5.5603057e+03
 1.0479340e+01   5.7084702e+03
 1.0484020e+01   5.6895937e+03
 1.0488700e+01   5.7510320e+03
 1.0493380e+01   5.9868642e+03
 1.0498060e+01   6.0734697e+03
 1.0502740e+01   6.0825236e+03
 1.0507420e+01   6.0542601e+03
 1.0512100e+01   6.1433424e+03
 1.0516780e+01   5.9842301e+03
 1.0521460e+01   5.7696485e+03
 1.0526140e+01   5.7555535e+03
 1.0530820e+01   5.8493342e+03
 1.0535500e+01   5.5033154e+03
 1.0540180e+01   5.4605819e+03
 1.0544860e+01   5.3571066e+03
 1.0549540e+01   5.2955226e+03
 1.0554220e+01   5.3189126e+03
 1.0558900e+01   5.2751827e+03
 1.0563580e+01   5.2784197e+03
 1.0568260e+01   5.2532859e+03
 1.0572940e+01   5.2167352e+03
 1.0577620e+01   5.2420462e+03
 1.0582300e+01   5.1944434e+03
 1.0586980e+01   5.1988970e+03
 1.0591660e+01   5.2040269e+03
 1.0596340e+01   5.1670383e+03
 1.0601020e+01   5.1677726e+03
 1.0605700e+01   5.1579560e+03
 1.0610380e+01   5.1451573e+03
 1.0615060e+01   5.1543353e+03
 1.0619740e+01   5.1253700e+03
 1.0624420e+01   5.1129651e+03
 1.0629100e+01   5.1365759e+03
 1.0633780e+01   5.1079370e+03
 1.0638460e+01   5.1156356e+03
 1.0643140e+01   5.0984492e+03
 1.0647820e+01   5.0965396e+03
 1.0652500e+01   5.1021769e+03
 1.0657180e+01   5.1009884e+03
 1.0661860e+01   5.0902685e+03
 1.0666540e+01   5.0967539e+03
 1.0671220e+01   5.0812095e+03
 1.0675900e+01   5.0717784e+03
 1.0680580e+01   5.0778822e+03
 1.0685260e+01   5.0603208e+03
 1.0689940e+01   5.0930057e+03
 1.0694620e+01   5.0740454e+03
 1.0699300e+01   5.0721608e+03
 1.0703980e+01   5.0766343e+03
 1.0708660e+01   5.0848832e+03
 1.0713340e+01   5.0770632e+03
 1.0718020e+01   5.0959943e+03
 1.0722700e+01   5.0906033e+03
 1.0727380e+01   5.1183191e+03
 1.0732060e+01   5.1101164e+03
 1.0736740e+01   5.1086066e+03
 1.0741420e+01   5.1225614e+03
 1.0746100e+01   5.1340471e+03
 1.0750780e+01   5.1452352e+03
 1.0755460e+01   5.1410756e+03
 1.0760140e+01   5.1391674e+03
 1.0764820e+01   5.1437126e+03
 1.0769500e+01   5.1424636e+03
 1.0774180e+01   5.1320995e+03
 1.0778860e+01   5.1310344e+03
 1.0783540e+01   5.1106420e+03
 1.0788220e+01   5.1327169e+03
 1.0792900e+01   5.1066245e+03
 1.0797580e+01   5.1190765e+03
 1.0802260e+01   5.1120496e+03
 1.0806940e+01   5.1203108e+03
 1.0811620e+01   5.1100677e+03
 1.0816300e+01   5.1002806e+03
 1.0820980e+01   5.0974047e+03
 1.0825660e+01   5.0819232e+03
 1.0830340e+01   5.0940794e+03
 1.0835020e+01   5.0729718e+03
 1.0839700e+01   5.0824119e+03
 1.0844380e+01   5.0649863e+03
 1.0849060e+01   5.0715031e+03
 1.0853740e+01   5.0533304e+03
 1.0858420e+01   5.0536751e+03
 1.0863100e+01   5.0571935e+03
 1.0867780e+01   5.0434355e+03
 1.0872460e+01   5.0389646e+03
 1.0877140e+01   5.0261871e+03
 1.0881820e+01   5.0056737e+03
 1.0886500e+01   5.0075916e+03
 1.0891180e+01   4.9844560e+03
 1.0895860e+01   4.9802826e+03
 1.0900540e+01   4.9674889e+03
 1.0905220e+01   4.9522073e+03
 1.0909900e+01   4.9501298e+03
 1.0914580e+01   4.9311494e+03
 1.0919260e+01   4.9176551e+03
 1.0923940e+01   4.9171448e+03
 1.0928620e+01   4.8976760e+03
 1.0933300e+01   4.8926820e+03
 1.0937980e+01   4.8951422e+03
 1.0942660e+01   4.8757787e+03
 1.0947340e+01   4.8610289e+03
 1.0952020e+01   4.8650264e+03
 1.0956700e+01   4.8432152e+03
 1.0961380e+01   4.8586264e+03
 1.0966060e+01   4.8361665e+03
 1.0970740e+01   4.8486698e+03
 1.0975420e+01   4.8399070e+03
 1.0980100e+01   4.8379267e+03
 1.0984780e+01   4.8222672e+03
 1.0989460e+01   4.8192543e+03
 1.0994140e+01   4.8041412e+03
 1.0998820e+01   4.8134862e+03
 1.1003500e+01   4.7993801e+03
 1.1008180e+01   4.8129046e+03
 1.1012860e+01   4.8104705e+03
 1.1017540e+01   4.8023155e+03
 1.1022220e+01   4.8186657e+03
 1.1026900e+01   4.8081149e+03
 1.1031580e+01   4.8181051e+03
 1.1036260e+01   4.8185589e+03
 1.1040940e+01   4.8217390e+03
 1.1045620e+01   4.8285330e+03
 1.1050300e+01   4.8202884e+03
 1.1054980e+01   4.8346035e+03
 1.1059660e+01   4.8525848e+03
 1.1064340e+01   4.8387190e+03
 1.1069020e+01   4.8475798e+03
 1.1073700e+01   4.8647793e+03
 1.1078380e+01   4.8716078e+03
 1.1083060e+01   4.8862233e+03
 1.1087740e+01   4.8927325e+03
 1.1092420e+01   4.9076758e+03
 1.1097100e+01   4.9324917e+03
 1.1101780e+01   4.9311214e+03
 1.1106460e+01   4.9582198e+03
 1.1111140e+01   4.9768977e+03
 1.1115820e+01   4.9866048e+03
 1.1120500e+01   5.0156255e+03
 1.1125180e+01   5.0250248e+03
 1.1129860e+01   5.0269420e+03
 1.1134540e+01   5.0320030e+03
 1.1139220e+01   5.0365985e+03
 1.1143900e+01   5.0297097e+03
 1.1148580e+01   5.0393698e+03
 1.1153260e+01   5.0203730e+03
 1.1157940e+01   5.0248027e+03
 1.1162620e+01   5.0066328e+03
 1.1167300e+01   4.9773140e+03
 1.1171980e+01   4.9904647e+03
 1.1176660e+01   4.9703238e+03
 1.1181340e+01   4.9683404e+03
 1.1186020e+01   4.9423621e+03
 1.1190700e+01   4.9383695e+03
 1.1195380e+01   4.9462006e+03
 1.1200060e+01   4.9024498e+03
 1.1204740e+01   4.8994268e+03
 1.1209420e+01   4.9818608e+03
 1.1214100e+01   4.8900744e+03
 1.1218780e+01   5.0016970e+03
 1.1223460e+01   4.8878416e+03
 1.1228140e+01   4.8880981e+03
 1.1232820e+01   4.9431670e+03
 1.1237500e+01   4.8626739e+03
 1.1242180e+01   4.8607859e+03
 1.1246860e+01   4.8456153e+03
 1.1251540e+01   4.8215789e+03
 1.1256220e+01   4.8103247e+03
 1.1260900e+01   4.7952671e+03
 1.1265580e+01   4.7852033e+03
 1.1270260e+01   4.7735854e+03
 1.1274940e+01   4.7516770e+03
 1.1279620e+01   4.7735267e+03
 1.1284300e+01   4.7499118e+03
 1.1288980e+01   4.7308034e+03
 1.1293660e+01   4.7284903e+03
 1.1298340e+01   4.7148079e+03
 1.1303020e+01   4.7072784e+03
 1.1307700e+01   4.6987723e+03
 1.1312380e+01   4.6919476e+03
 1.1317060e+01   4.6885367e+03
 1.1321740e+01   4.6791242e+03
 1.1326420e+01   4.6706226e+03
 1.1331100e+01   4.6623463e+03
 1.1335780e+01   4.6443782e+03
 1.1340460e+01   4.6346754e+03
 1.1345140e+01   4.6426951e+03
 1.1349820e+01   4.6163403e+03
 1.1354500e+01   4.6306376e+03
 1.1359180e+01   4.6109566e+03
 1.1363860e+01   4.6107082e+03
 1.1368540e+01   4.6011492e+03
 1.1373220e+01   4.5869527e+03
 1.1377900e+01   4.6010536e+03
 1.1382580e+01   4.5698081e+03
 1.1387260e+01   4.5712671e+03
 1.1391940e+01   4.5727016e+03
 1.1396620e+01   4.5572460e+03
 1.1401300e+01   4.5658686e+03
 1.1405980e+01   4.5674506e+03
 1.1410660e+01   4.5508143e+03
 1.1415340e+01   4.5541850e+03
 1.1420020e+01   4.5312336e+03
 1.1424700e+01   4.5351005e+03
 1.1429380e+01   4.5445114e+03
 1.1434060e+01   4.5305644e+03
 1.1438740e+01   4.5330708e+03
 1.1443420e+01   4.5316246e+03
 1.1448100e+01   4.5254284e+03
 1.1452780e+01   4.5265217e+03
 1.1457460e+01   4.5115636e+03
 1.1462140e+01   4.5182450e+03
 1.1466820e+01   4.5266072e+03
 1.1471500e+01   4.5144202e+03
 1.1476180e+01   4.5203009e+03
 1.1480860e+01   4.5060580e+03
 1.1485540e+01   4.5144742e+03
 1.1490220e+01   4.5069915e+03
 1.1494900e+01   4.4909248e+03
 1.1499580e+01   4.4946486e+03
 1.1504260e+01   4.4930667e+03
 1.1508940e+01   4.4778377e+03
 1.1513620e+01   4.4834239e+03
 1.1518300e+01   4.4748635e+03
 1.1522980e+01   4.4623851e+03
 1.1527660e+01   4.4822998e+03
 1.1532340e+01   4.4581928e+03
 1.1537020e+01   4.4645767e+03
 1.1541700e+01   4.4599129e+03
 1.1546380e+01   4.4457368e+03
 1.1551060e+01   4.4446007e+03
 1.1555740e+01   4.4432667e+03
 1.1560420e+01   4.4344172e+03
 1.1565100e+01   4.4319127e+03
 1.1569780e+01   4.4266289e+03
 1.1574460e+01   4.4275127e+03
 1.1579140e+01   4.4145089e+03
 1.1583820e+01   4.4139657e+03
 1.1588500e+01   4.4172653e+03
 1.1593180e+01   4.4248300e+03
 1.1597860e+01   4.4229329e+03
 1.1602540e+01   4.4155880e+03
 1.1607220e+01   4.4122260e+03
 1.1611900e+01   4.4174793e+03
 1.1616580e+01   4.4073322e+03
 1.1621260e+01   4.4191276e+03
 1.1625940e+01   4.4066260e+03
 1.1630620e+01   4.4058020e+03
 1.1635300e+01   4.4048440e+03
 1.1639980e+01   4.4024147e+03
 1.1644660e+01   4.3933199e+03
 1.1649340e+01   4.3867986e+03
 1.1654020e+01   4.3896547e+03
 1.1658700e+01   4.3864078e+03
 1.1663380e+01   4.3827558e+03
 1.1668060e+01   4.3695009e+03
 1.1672740e+01   4.3807024e+03
 1.1677420e+01   4.3718205e+03
 1.1682100e+01   4.3715091e+03
 1.1686780e+01   4.3705641e+03
 1.1691460e+01   4.3645994e+03
 1.1696140e+01   4.3554975e+03
 1.1700820e+01   4.3589254e+03
 1.1705500e+01   4.3530367e+03
 1.1710180e+01   4.3592447e+03
 1.1714860e+01   4.3523028e+03
 1.1719540e+01   4.3511432e+03
 1.1724220e+01   4.3551842e+03
 1.1728900e+01   4.3529306e+03
 1.1733580e+01   4.3573766e+03
 1.1738260e+01   4.3574168e+03
 1.1742940e+01   4.3600876e+03
 1.1747620e+01   4.3486694e+03
 1.1752300e+01   4.3527930e+03
 1.1756980e+01   4.3514177e+03
 1.1761660e+01   4.3543793e+03
 1.1766340e+01   4.3484151e+03
 1.1771020e+01   4.3658030e+03
 1.1775700e+01   4.3523616e+03
 1.1780380e+01   4.3543723e+03
 1.1785060e+01   4.3541747e+03
 1.1789740e+01   4.3561616e+03
 1.1794420e+01   4.3633002e+03
 1.1799100e+01   4.3604887e+03
 1.1803780e+01   4.3712555e+03
 1.1808460e+01   4.3702281e+03
 1.1813140e+01   4.3665056e+03
 1.1817820e+01   4.3765229e+03
 1.1822500e+01   4.3793158e+03
 1.1827180e+01   4.3815709e+03
 1.1831860e+01   4.3897578e+03
 1.1836540e+01   4.3831693e+03
 1.1841220e+01   4.3857211e+03
 1.1845900e+01   4.3963285e+03
 1.1850580e+01   4.4117958e+03
 1.1855260e+01   4.4187992e+03
 1.1859940e+01   4.4301374e+03
 1.1864620e+01   4.4460595e+03
 1.1869300e+01   4.4598490e+03
 1.1873980e+01   4.4906440e+03
 1.1878660e+01   4.5191820e+03
 1.1883340e+01   4.5404922e+03
 1.1888020e+01   4.5722231e+03
 1.1892700e+01   4.6252758e+03
 1.1897380e+01   4.6719674e+03
 1.1902060e+01   4.7214938e+03
 1.1906740e+01   4.7214461e+03
 1.1911420e+01   4.7294817e+03
 1.1916100e+01   4.6858925e+03
 1.1920780e+01   4.6470832e+03
 1.1925460e+01   4.6438493e+03
 1.1930140e+01   4.5982762e+03
 1.1934820e+01   4.5952659e+03
 1.1939500e+01   4.5786991e+03
 1.1944180e+01   4.5351010e+03
 1.1948860e+01   4.5293751e+03
 1.1953540e+01   4.5261971e+03
 1.1958220e+01   4.5209730e+03
 1.1962900e+01   4.5195251e+03
 1.1967580e+01   4.5397580e+03
 1.1972260e+01   4.5315883e+03
 1.1976940e+01   4.5426942e+03
 1.1981620e+01   4.5442781e+03
 1.1986300e+01   4.5433887e+03
 1.1990980e+01   4.5615634e+03
 1.1995660e+01   4.5472251e+03
 1.2000340e+01   4.5480433e+03
 1.2005020e+01   4.5496905e+03
 1.2009700e+01   4.5440033e+03
 1.2014380e+01   4.5509515e+03
 1.2019060e+01   4.5493296e+03
 1.2023740e+01   4.5335284e+03
 1.2028420e+01   4.5366989e+03
 1.2033100e+01   4.5251236e+03
 1.2037780e+01   4.5246433e+03
 1.2042460e+01   4.5176691e+03
 1.2047140e+01   4.5050069e+03
 1.2051820e+01   4.5022048e+03
 1.2056500e+01   4.5050748e+03
 1.2061180e+01   4.4943302e+03
 1.2065860e+01   4.4965926e+03
 1.2070540e+01   4.4826062e+03
 1.2075220e+01   4.4793931e+03
 1.2079900e+01   4.4775169e+03
 1.2084580e+01   4.4702838e+03
 1.2089260e+01   4.4807787e+03
 1.2093940e+01   4.4642283e+03
 1.2098620e+01   4.4580198e+03
 1.2103300e+01   4.4551703e+03
 1.2107980e+01   4.4443541e+03
 1.2112660e+01   4.4398796e+03
 1.2117340e+01   4.4290682e+03
 1.2122020e+01   4.4172236e+03
 1.2126700e+01   4.3930073e+03
 1.2131380e+01   4.3873859e+03
 1.2136060e+01   4.3700485e+03
 1.2140740e+01   4.3588066e+03
 1.2145420e+01   4.3416417e+03
 1.2150100e+01   4.3289701e+03
 1.2154780e+01   4.3040395e+03
 1.2159460e+01   4.2887967e+03
 1.2164140e+01   4.2650467e+03
 1.2168820e+01   4.2477606e+03
 1.2173500e+01   4.2443344e+03
 1.2178180e+01   4.2260204e+03
 1.2182860e+01   4.2104839e+03
 1.2187540e+01   4.2141237e+03
 1.2192220e+01   4.1950809e+03
 1.2196900e+01   4.1855089e+03
 1.2201580e+01   4.1841496e+03
 1.2206260e+01   4.1621128e+03
 1.2210940e+01   4.1640463e+03
 1.2215620e+01   4.1491674e+03
 1.2220300e+01   4.1527288e+03
 1.2224980e+01   4.1579493e+03
 1.2229660e+01   4.1450418e+03
 1.2234340e+01   4.1451758e+03
 1.2239020e+01   4.1355320e+03
 1.2243700e+01   4.1393238e+03
 1.2248380e+01   4.1283419e+03
 1.2253060e+01   4.1205683e+03
 1.2257740e+01   4.1176621e+03
 1.2262420e+01   4.1202381e+03
 1.2267100e+01   4.1103038e+03
 1.2271780e+01   4.1027582e+03
 1.2276460e+01   4.1154539e+03
 1.2281140e+01   4.1164192e+03
 1.2285820e+01   4.1016833e+03
 1.2290500e+01   4.0988409e+03
 1.2295180e+01   4.1083289e+03
 1.2299860e+01   4.0957260e+03
 1.2304540e+01   4.1062018e+03
 1.2309220e+01   4.1101049e+03
 1.2313900e+01   4.1036928e+03
 1.2318580e+01   4.1015765e+03
 1.2323260e+01   4.1063472e+03
 1.2327940e+01   4.1037231e+03
 1.2332620e+01   4.1175365e+03
 1.2337300e+01   4.1009879e+03
 1.2341980e+01   4.1088349e+03
 1.2346660e+01   4.1163607e+03
 1.2351340e+01   4.1261447e+03
 1.2356020e+01   4.1215501e+03
 1.2360700e+01   4.1285442e+03
 1.2365380e+01   4.1342922e+03
 1.2370060e+01   4.1361891e+03
 1.2374740e+01   4.1414476e+03
 1.2379420e+01   4.1450283e+03
 1.2384100e+01   4.1431492e+03
 1.2388780e+01   4.1516391e+03
 1.2393460e+01   4.1532659e+03
 1.2398140e+01   4.1527017e+03
 1.2402820e+01   4.1419177e+03
 1.2407500e+01   4.1573185e+03
 1.2412180e+01   4.1518387e+03
 1.2416860e+01   4.1594186e+03
 1.2421540e+01   4.1603802e+03
 1.2426220e+01   4.1596958e+03
 1.2430900e+01   4.1665612e+03
 1.2435580e+01   4.1680418e+03
 1.2440260e+01   4.1722853e+03
 1.2444940e+01   4.1710875e+03
 1.2449620e+01   4.1647757e+03
 1.2454300e+01   4.1759767e+03
 1.2458980e+01   4.1847202e+03
 1.2463660e+01   4.1788566e+03
 1.2468340e+01   4.1953362e+03
 1.2473020e+01   4.1849158e+03
 1.2477700e+01   4.1840955e+03
 1.2482380e+01   4.1853475e+03
 1.2487060e+01   4.1848465e+03
 1.2491740e+01   4.1819796e+03
 1.2496420e+01   4.1852145e+03
 1.2501100e+01   4.1720401e+03
 1.2505780e+01   4.1840413e+03
 1.2510460e+01   4.1784839e+03
 1.2515140e+01   4.1687109e+03
 1.2519820e+01   4.1646631e+03
 1.2524500e+01   4.1722965e+03
 1.2529180e+01   4.1670465e+03
 1.2533860e+01   4.1686415e+03
 1.2538540e+01   4.1765217e+03
 1.2543220e+01   4.1680873e+03
 1.2547900e+01   4.1877556e+03
 1.2552580e+01   4.1754380e+03
 1.2557260e+01   4.2143182e+03
 1.2561940e+01   4.2152020e+03
 1.2566620e+01   4.1985833e+03
 1.2571300e+01   4.2241885e+03
 1.2575980e+01   4.2093230e+03
 1.2580660e+01   4.1951141e+03
 1.2585340e+01   4.2097480e+03
 1.2590020e+01   4.1937797e+03
 1.2594700e+01   4.1951765e+03
 1.2599380e+01   4.2019184e+03
 1.2604060e+01   4.2025425e+03
 1.2608740e+01   4.2264329e+03
 1.2613420e+01   4.2295966e+03
 1.2618100e+01   4.2303845e+03
 1.2622780e+01   4.2353989e+03
 1.2627460e+01   4.2376390e+03
 1.2632140e+01   4.2476518e+03
 1.2636820e+01   4.2470727e+03
 1.2641500e+01   4.2448448e+03
 1.2646180e+01   4.2540957e+03
 1.2650860e+01   4.2670756e+03
 1.2655540e+01   4.2530206e+03
 1.2660220e+01   4.2557901e+03
 1.2664900e+01   4.2672171e+03
 1.2669580e+01   4.2650637e+03
 1.2674260e+01   4.2567772e+03
 1.2678940e+01   4.2655353e+03
 1.2683620e+01   4.2501238e+03
 1.2688300e+01   4.2444657e+03
 1.2692980e+01   4.2500228e+03
 1.2697660e+01   4.2413078e+03
