MA2b-00004.tif Azm= 0.00
2-Theta Angle (Degrees)
Intensity
       2500
 1.0023400e+00   7.9107259e+03
 1.0070200e+00   7.9122723e+03
 1.0117000e+00   7.9062463e+03
 1.0163800e+00   7.8516777e+03
 1.0210600e+00   7.8149274e+03
 1.0257400e+00   7.7916902e+03
 1.0304199e+00   7.7738067e+03
 1.0351000e+00   7.7299819e+03
 1.0397800e+00   7.7272014e+03
 1.0444601e+00   7.6821284e+03
 1.0491400e+00   7.6279962e+03
 1.0538200e+00   7.6650661e+03
 1.0585001e+00   7.6061326e+03
 1.0631800e+00   7.5871557e+03
 1.0678600e+00   7.6073834e+03
 1.0725400e+00   7.5399090e+03
 1.0772200e+00   7.5011677e+03
 1.0819000e+00   7.5134893e+03
 1.0865800e+00   7.4887479e+03
 1.0912600e+00   7.4569599e+03
 1.0959400e+00   7.4599245e+03
 1.1006200e+00   7.4337764e+03
 1.1052999e+00   7.4274885e+03
 1.1099800e+00   7.4207189e+03
 1.1146600e+00   7.3810774e+03
 1.1193399e+00   7.3715638e+03
 1.1240200e+00   7.3334393e+03
 1.1287000e+00   7.3404196e+03
 1.1333801e+00   7.3543388e+03
 1.1380600e+00   7.2997312e+03
 1.1427400e+00   7.2850227e+03
 1.1474200e+00   7.2698735e+03
 1.1521000e+00   7.2974690e+03
 1.1567800e+00   7.2607807e+03
 1.1614600e+00   7.2229982e+03
 1.1661400e+00   7.2370278e+03
 1.1708200e+00   7.2372839e+03
 1.1755000e+00   7.1734494e+03
 1.1801800e+00   7.2148293e+03
 1.1848600e+00   7.1911701e+03
 1.1895400e+00   7.1970890e+03
 1.1942199e+00   7.1754376e+03
 1.1989000e+00   7.1713598e+03
 1.2035800e+00   7.1788027e+03
 1.2082601e+00   7.1465440e+03
 1.2129400e+00   7.1154157e+03
 1.2176200e+00   7.1180221e+03
 1.2223001e+00   7.1444168e+03
 1.2269800e+00   7.1134870e+03
 1.2316600e+00   7.1350154e+03
 1.2363400e+00   7.1415517e+03
 1.2410200e+00   7.0996019e+03
 1.2457000e+00   7.1438950e+03
 1.2503800e+00   7.1211654e+03
 1.2550600e+00   7.1131510e+03
 1.2597400e+00   7.1306575e+03
 1.2644200e+00   7.1507915e+03
 1.2691000e+00   7.1047072e+03
 1.2737800e+00   7.1292478e+03
 1.2784600e+00   7.0832452e+03
 1.2831399e+00   7.0844791e+03
 1.2878200e+00   7.1321852e+03
 1.2925000e+00   7.0982226e+03
 1.2971801e+00   7.1300098e+03
 1.3018600e+00   7.1046294e+03
 1.3065400e+00   7.1375500e+03
 1.3112200e+00   7.1385462e+03
 1.3159000e+00   7.1005642e+03
 1.3205800e+00   7.1211932e+03
 1.3252600e+00   7.1348229e+03
 1.3299400e+00   7.1250628e+03
 1.3346200e+00   7.1405227e+03
 1.3393000e+00   7.1661221e+03
 1.3439800e+00   7.1745289e+03
 1.3486600e+00   7.1830197e+03
 1.3533400e+00   7.1315358e+03
 1.3580199e+00   7.2103990e+03
 1.3627000e+00   7.1772787e+03
 1.3673800e+00   7.1541188e+03
 1.3720599e+00   7.1679420e+03
 1.3767400e+00   7.2135345e+03
 1.3814200e+00   7.1744256e+03
 1.3861001e+00   7.1999649e+03
 1.3907800e+00   7.2253763e+03
 1.3954600e+00   7.2423057e+03
 1.4001400e+00   7.2526194e+03
 1.4048200e+00   7.2562113e+03
 1.4095000e+00   7.2963189e+03
 1.4141800e+00   7.3205120e+03
 1.4188600e+00   7.3397529e+03
 1.4235400e+00   7.3414022e+03
 1.4282200e+00   7.3692800e+03
 1.4329000e+00   7.4036505e+03
 1.4375800e+00   7.3920251e+03
 1.4422600e+00   7.4364042e+03
 1.4469399e+00   7.4825529e+03
 1.4516200e+00   7.5012958e+03
 1.4563000e+00   7.5158385e+03
 1.4609801e+00   7.5170137e+03
 1.4656600e+00   7.5680929e+03
 1.4703400e+00   7.5729309e+03
 1.4750201e+00   7.5749520e+03
 1.4797000e+00   7.6010853e+03
 1.4843800e+00   7.6398763e+03
 1.4890600e+00   7.6686752e+03
 1.4937400e+00   7.7020694e+03
 1.4984200e+00   7.6985229e+03
 1.5031000e+00   7.7464982e+03
 1.5077800e+00   7.7496299e+03
 1.5124600e+00   7.7521772e+03
 1.5171400e+00   7.7715797e+03
 1.5218199e+00   7.7869724e+03
 1.5265000e+00   7.7839656e+03
 1.5311800e+00   7.7726961e+03
 1.5358599e+00   7.7607219e+03
 1.5405400e+00   7.7676265e+03
 1.5452200e+00   7.7488560e+03
 1.5499001e+00   7.7776239e+03
 1.5545800e+00   7.7284965e+03
 1.5592600e+00   7.7632480e+03
 1.5639400e+00   7.7258424e+03
 1.5686200e+00   7.7292598e+03
 1.5733000e+00   7.7530519e+03
 1.5779800e+00   7.6958760e+03
 1.5826600e+00   7.6869261e+03
 1.5873400e+00   7.6817680e+03
 1.5920200e+00   7.7024809e+03
 1.5967000e+00   7.7052706e+03
 1.6013800e+00   7.6706094e+03
 1.6060600e+00   7.7103302e+03
 1.6107399e+00   7.6802998e+03
 1.6154200e+00   7.7145868e+03
 1.6201000e+00   7.6848363e+03
 1.6247801e+00   7.7008987e+03
 1.6294600e+00   7.6847405e+03
 1.6341400e+00   7.6938892e+03
 1.6388201e+00   7.7028938e+03
 1.6435000e+00   7.6977567e+03
 1.6481800e+00   7.7081584e+03
 1.6528600e+00   7.7130747e+03
 1.6575400e+00   7.7001362e+03
 1.6622200e+00   7.6997348e+03
 1.6669000e+00   7.7059704e+03
 1.6715800e+00   7.6986418e+03
 1.6762600e+00   7.6988116e+03
 1.6809400e+00   7.7210625e+03
 1.6856200e+00   7.7155361e+03
 1.6903000e+00   7.7023656e+03
 1.6949800e+00   7.7084888e+03
 1.6996599e+00   7.7162953e+03
 1.7043400e+00   7.6827497e+03
 1.7090200e+00   7.7292999e+03
 1.7137001e+00   7.7054639e+03
 1.7183800e+00   7.7198341e+03
 1.7230600e+00   7.7159642e+03
 1.7277400e+00   7.7399815e+03
 1.7324200e+00   7.7541497e+03
 1.7371000e+00   7.7340961e+03
 1.7417800e+00   7.7332267e+03
 1.7464600e+00   7.7355778e+03
 1.7511400e+00   7.7355082e+03
 1.7558200e+00   7.7829808e+03
 1.7605000e+00   7.7686065e+03
 1.7651800e+00   7.7767052e+03
 1.7698600e+00   7.7991445e+03
 1.7745399e+00   7.7727771e+03
 1.7792200e+00   7.8105039e+03
 1.7839000e+00   7.8289274e+03
 1.7885799e+00   7.8129198e+03
 1.7932600e+00   7.8346107e+03
 1.7979400e+00   7.8405523e+03
 1.8026201e+00   7.8605593e+03
 1.8073000e+00   7.8624083e+03
 1.8119800e+00   7.9090536e+03
 1.8166600e+00   7.8994335e+03
 1.8213400e+00   7.9295245e+03
 1.8260200e+00   7.9292028e+03
 1.8307000e+00   7.9727901e+03
 1.8353800e+00   7.9879594e+03
 1.8400600e+00   7.9917356e+03
 1.8447400e+00   7.9993880e+03
 1.8494200e+00   8.0175378e+03
 1.8541000e+00   8.0416226e+03
 1.8587800e+00   8.0840257e+03
 1.8634599e+00   8.1008894e+03
 1.8681400e+00   8.1039594e+03
 1.8728200e+00   8.1482979e+03
 1.8775001e+00   8.1330107e+03
 1.8821800e+00   8.1955851e+03
 1.8868600e+00   8.2095211e+03
 1.8915401e+00   8.2332706e+03
 1.8962200e+00   8.2420496e+03
 1.9009000e+00   8.2682809e+03
 1.9055800e+00   8.2841032e+03
 1.9102600e+00   8.3154837e+03
 1.9149400e+00   8.3280901e+03
 1.9196200e+00   8.3384885e+03
 1.9243000e+00   8.3784870e+03
 1.9289800e+00   8.3947435e+03
 1.9336600e+00   8.4205921e+03
 1.9383399e+00   8.4407776e+03
 1.9430200e+00   8.4994529e+03
 1.9477000e+00   8.5174964e+03
 1.9523799e+00   8.5153279e+03
 1.9570600e+00   8.5518642e+03
 1.9617400e+00   8.5979058e+03
 1.9664201e+00   8.6029195e+03
 1.9711000e+00   8.6372479e+03
 1.9757800e+00   8.6594095e+03
 1.9804600e+00   8.6780780e+03
 1.9851400e+00   8.6918765e+03
 1.9898200e+00   8.7270882e+03
 1.9945000e+00   8.7433840e+03
 1.9991800e+00   8.7848018e+03
 2.0038600e+00   8.7951929e+03
 2.0085399e+00   8.8291345e+03
 2.0132201e+00   8.8439236e+03
 2.0179000e+00   8.8900461e+03
 2.0225799e+00   8.9163703e+03
 2.0272601e+00   8.9322635e+03
 2.0319400e+00   8.9600645e+03
 2.0366199e+00   8.9934019e+03
 2.0413001e+00   9.0293425e+03
 2.0459800e+00   9.0490517e+03
 2.0506599e+00   9.1015934e+03
 2.0553401e+00   9.1159541e+03
 2.0600200e+00   9.1652129e+03
 2.0646999e+00   9.1884650e+03
 2.0693800e+00   9.2467271e+03
 2.0740600e+00   9.3204003e+03
 2.0787399e+00   9.3807005e+03
 2.0834200e+00   9.4405823e+03
 2.0881000e+00   9.5681618e+03
 2.0927801e+00   9.7170923e+03
 2.0974600e+00   9.9093361e+03
 2.1021399e+00   1.0179839e+04
 2.1068201e+00   1.0479388e+04
 2.1115000e+00   1.1009422e+04
 2.1161799e+00   1.1688404e+04
 2.1208601e+00   1.2743445e+04
 2.1255400e+00   1.4137747e+04
 2.1302199e+00   1.6053327e+04
 2.1349001e+00   1.8285309e+04
 2.1395800e+00   2.0745591e+04
 2.1442599e+00   2.3051267e+04
 2.1489401e+00   2.5051905e+04
 2.1536200e+00   2.6196127e+04
 2.1582999e+00   2.6619410e+04
 2.1629801e+00   2.6445525e+04
 2.1676600e+00   2.5817762e+04
 2.1723399e+00   2.4853447e+04
 2.1770201e+00   2.3762509e+04
 2.1817000e+00   2.2529591e+04
 2.1863799e+00   2.1289489e+04
 2.1910601e+00   1.9939327e+04
 2.1957400e+00   1.8710874e+04
 2.2004199e+00   1.7419313e+04
 2.2051001e+00   1.6335901e+04
 2.2097800e+00   1.5391759e+04
 2.2144599e+00   1.4673139e+04
 2.2191401e+00   1.4022991e+04
 2.2238200e+00   1.3622359e+04
 2.2284999e+00   1.3225327e+04
 2.2331800e+00   1.2955036e+04
 2.2378600e+00   1.2692692e+04
 2.2425399e+00   1.2457130e+04
 2.2472200e+00   1.2164258e+04
 2.2519000e+00   1.1861729e+04
 2.2565801e+00   1.1581995e+04
 2.2612600e+00   1.1338135e+04
 2.2659400e+00   1.1028338e+04
 2.2706201e+00   1.0864671e+04
 2.2753000e+00   1.0714780e+04
 2.2799799e+00   1.0604645e+04
 2.2846601e+00   1.0545857e+04
 2.2893400e+00   1.0523708e+04
 2.2940199e+00   1.0487372e+04
 2.2987001e+00   1.0472520e+04
 2.3033800e+00   1.0478974e+04
 2.3080599e+00   1.0467082e+04
 2.3127401e+00   1.0490397e+04
 2.3174200e+00   1.0495016e+04
 2.3220999e+00   1.0526169e+04
 2.3267801e+00   1.0540707e+04
 2.3314600e+00   1.0550112e+04
 2.3361399e+00   1.0583321e+04
 2.3408201e+00   1.0595791e+04
 2.3455000e+00   1.0624378e+04
 2.3501799e+00   1.0656808e+04
 2.3548601e+00   1.0698892e+04
 2.3595400e+00   1.0748482e+04
 2.3642199e+00   1.0744574e+04
 2.3689001e+00   1.0778555e+04
 2.3735800e+00   1.0812369e+04
 2.3782599e+00   1.0856034e+04
 2.3829401e+00   1.0858077e+04
 2.3876200e+00   1.0902961e+04
 2.3922999e+00   1.0948268e+04
 2.3969800e+00   1.0973842e+04
 2.4016600e+00   1.1011983e+04
 2.4063399e+00   1.1051318e+04
 2.4110200e+00   1.1087193e+04
 2.4157000e+00   1.1109677e+04
 2.4203801e+00   1.1165988e+04
 2.4250600e+00   1.1172390e+04
 2.4297400e+00   1.1215645e+04
 2.4344201e+00   1.1262623e+04
 2.4391000e+00   1.1276541e+04
 2.4437799e+00   1.1336097e+04
 2.4484601e+00   1.1368618e+04
 2.4531400e+00   1.1394995e+04
 2.4578199e+00   1.1415534e+04
 2.4625001e+00   1.1464964e+04
 2.4671800e+00   1.1501838e+04
 2.4718599e+00   1.1542995e+04
 2.4765401e+00   1.1572517e+04
 2.4812200e+00   1.1619715e+04
 2.4858999e+00   1.1640568e+04
 2.4905801e+00   1.1708105e+04
 2.4952600e+00   1.1730947e+04
 2.4999399e+00   1.1774951e+04
 2.5046201e+00   1.1803197e+04
 2.5093000e+00   1.1827879e+04
 2.5139799e+00   1.1888076e+04
 2.5186601e+00   1.1942472e+04
 2.5233400e+00   1.1948483e+04
 2.5280199e+00   1.1993839e+04
 2.5327001e+00   1.2026046e+04
 2.5373800e+00   1.2058196e+04
 2.5420599e+00   1.2101926e+04
 2.5467401e+00   1.2132357e+04
 2.5514200e+00   1.2145087e+04
 2.5560999e+00   1.2174315e+04
 2.5607800e+00   1.2206401e+04
 2.5654600e+00   1.2269718e+04
 2.5701399e+00   1.2295361e+04
 2.5748200e+00   1.2318503e+04
 2.5795000e+00   1.2333441e+04
 2.5841801e+00   1.2371090e+04
 2.5888600e+00   1.2397199e+04
 2.5935400e+00   1.2433667e+04
 2.5982201e+00   1.2463092e+04
 2.6029000e+00   1.2480010e+04
 2.6075799e+00   1.2520588e+04
 2.6122601e+00   1.2527813e+04
 2.6169400e+00   1.2544077e+04
 2.6216199e+00   1.2564469e+04
 2.6263001e+00   1.2590047e+04
 2.6309800e+00   1.2616713e+04
 2.6356599e+00   1.2644400e+04
 2.6403401e+00   1.2658012e+04
 2.6450200e+00   1.2665195e+04
 2.6496999e+00   1.2686185e+04
 2.6543801e+00   1.2709164e+04
 2.6590600e+00   1.2710268e+04
 2.6637399e+00   1.2716158e+04
 2.6684201e+00   1.2736494e+04
 2.6731000e+00   1.2736913e+04
 2.6777799e+00   1.2773376e+04
 2.6824601e+00   1.2772394e+04
 2.6871400e+00   1.2769546e+04
 2.6918199e+00   1.2782793e+04
 2.6965001e+00   1.2796374e+04
 2.7011800e+00   1.2796524e+04
 2.7058599e+00   1.2810367e+04
 2.7105401e+00   1.2821209e+04
 2.7152200e+00   1.2811328e+04
 2.7198999e+00   1.2814689e+04
 2.7245800e+00   1.2838236e+04
 2.7292600e+00   1.2819122e+04
 2.7339399e+00   1.2821118e+04
 2.7386200e+00   1.2837023e+04
 2.7433000e+00   1.2828080e+04
 2.7479801e+00   1.2800408e+04
 2.7526600e+00   1.2807166e+04
 2.7573400e+00   1.2790924e+04
 2.7620201e+00   1.2804776e+04
 2.7667000e+00   1.2788266e+04
 2.7713799e+00   1.2777498e+04
 2.7760601e+00   1.2776179e+04
 2.7807400e+00   1.2775970e+04
 2.7854199e+00   1.2779008e+04
 2.7901001e+00   1.2782322e+04
 2.7947800e+00   1.2744526e+04
 2.7994599e+00   1.2757401e+04
 2.8041401e+00   1.2745562e+04
 2.8088200e+00   1.2723469e+04
 2.8134999e+00   1.2705917e+04
 2.8181801e+00   1.2692563e+04
 2.8228600e+00   1.2663185e+04
 2.8275399e+00   1.2646807e+04
 2.8322201e+00   1.2644576e+04
 2.8369000e+00   1.2613101e+04
 2.8415799e+00   1.2601165e+04
 2.8462601e+00   1.2625563e+04
 2.8509400e+00   1.2600807e+04
 2.8556199e+00   1.2574813e+04
 2.8603001e+00   1.2556467e+04
 2.8649800e+00   1.2545563e+04
 2.8696599e+00   1.2532562e+04
 2.8743401e+00   1.2502553e+04
 2.8790200e+00   1.2502410e+04
 2.8836999e+00   1.2466006e+04
 2.8883801e+00   1.2458744e+04
 2.8930600e+00   1.2454716e+04
 2.8977399e+00   1.2429162e+04
 2.9024200e+00   1.2405638e+04
 2.9071000e+00   1.2391814e+04
 2.9117801e+00   1.2344076e+04
 2.9164600e+00   1.2351848e+04
 2.9211400e+00   1.2323413e+04
 2.9258201e+00   1.2311666e+04
 2.9305000e+00   1.2285356e+04
 2.9351799e+00   1.2278582e+04
 2.9398601e+00   1.2247606e+04
 2.9445400e+00   1.2255868e+04
 2.9492199e+00   1.2208550e+04
 2.9539001e+00   1.2201744e+04
 2.9585800e+00   1.2182937e+04
 2.9632599e+00   1.2148191e+04
 2.9679401e+00   1.2134592e+04
 2.9726200e+00   1.2114592e+04
 2.9772999e+00   1.2080803e+04
 2.9819801e+00   1.2057112e+04
 2.9866600e+00   1.2028710e+04
 2.9913399e+00   1.2030405e+04
 2.9960201e+00   1.1992846e+04
 3.0007000e+00   1.1956514e+04
 3.0053799e+00   1.1930001e+04
 3.0100601e+00   1.1885291e+04
 3.0147400e+00   1.1874753e+04
 3.0194199e+00   1.1865148e+04
 3.0241001e+00   1.1841029e+04
 3.0287800e+00   1.1809178e+04
 3.0334599e+00   1.1788841e+04
 3.0381401e+00   1.1768604e+04
 3.0428200e+00   1.1736069e+04
 3.0474999e+00   1.1685989e+04
 3.0521801e+00   1.1665013e+04
 3.0568600e+00   1.1619335e+04
 3.0615399e+00   1.1605617e+04
 3.0662200e+00   1.1556772e+04
 3.0709000e+00   1.1554899e+04
 3.0755799e+00   1.1515589e+04
 3.0802600e+00   1.1515124e+04
 3.0849400e+00   1.1489037e+04
 3.0896201e+00   1.1450121e+04
 3.0943000e+00   1.1434132e+04
 3.0989799e+00   1.1419383e+04
 3.1036601e+00   1.1382066e+04
 3.1083400e+00   1.1376960e+04
 3.1130199e+00   1.1323079e+04
 3.1177001e+00   1.1319376e+04
 3.1223800e+00   1.1297310e+04
 3.1270599e+00   1.1270624e+04
 3.1317401e+00   1.1242832e+04
 3.1364200e+00   1.1256322e+04
 3.1410999e+00   1.1225690e+04
 3.1457801e+00   1.1207892e+04
 3.1504600e+00   1.1194679e+04
 3.1551399e+00   1.1149863e+04
 3.1598201e+00   1.1145503e+04
 3.1645000e+00   1.1113984e+04
 3.1691799e+00   1.1114432e+04
 3.1738601e+00   1.1083840e+04
 3.1785400e+00   1.1105564e+04
 3.1832199e+00   1.1059870e+04
 3.1879001e+00   1.1084445e+04
 3.1925800e+00   1.1044761e+04
 3.1972599e+00   1.1043348e+04
 3.2019401e+00   1.0994613e+04
 3.2066200e+00   1.1011954e+04
 3.2112999e+00   1.0998477e+04
 3.2159801e+00   1.0955925e+04
 3.2206600e+00   1.0929603e+04
 3.2253399e+00   1.0945759e+04
 3.2300200e+00   1.0888207e+04
 3.2347000e+00   1.0906687e+04
 3.2393799e+00   1.0899956e+04
 3.2440600e+00   1.0873877e+04
 3.2487400e+00   1.0860620e+04
 3.2534201e+00   1.0857686e+04
 3.2581000e+00   1.0824196e+04
 3.2627800e+00   1.0859092e+04
 3.2674601e+00   1.0828760e+04
 3.2721400e+00   1.0806624e+04
 3.2768199e+00   1.0820673e+04
 3.2815001e+00   1.0783240e+04
 3.2861800e+00   1.0774369e+04
 3.2908599e+00   1.0764428e+04
 3.2955401e+00   1.0779544e+04
 3.3002200e+00   1.0756598e+04
 3.3048999e+00   1.0770161e+04
 3.3095801e+00   1.0751523e+04
 3.3142600e+00   1.0779921e+04
 3.3189399e+00   1.0754540e+04
 3.3236201e+00   1.0749941e+04
 3.3283000e+00   1.0735547e+04
 3.3329799e+00   1.0747731e+04
 3.3376601e+00   1.0732561e+04
 3.3423400e+00   1.0730766e+04
 3.3470199e+00   1.0702585e+04
 3.3517001e+00   1.0733375e+04
 3.3563800e+00   1.0695087e+04
 3.3610599e+00   1.0720444e+04
 3.3657401e+00   1.0713434e+04
 3.3704200e+00   1.0701862e+04
 3.3750999e+00   1.0690201e+04
 3.3797801e+00   1.0713637e+04
 3.3844600e+00   1.0698638e+04
 3.3891399e+00   1.0709518e+04
 3.3938200e+00   1.0713746e+04
 3.3985000e+00   1.0697678e+04
 3.4031799e+00   1.0725712e+04
 3.4078600e+00   1.0681319e+04
 3.4125400e+00   1.0720536e+04
 3.4172201e+00   1.0707561e+04
 3.4219000e+00   1.0710291e+04
 3.4265800e+00   1.0747260e+04
 3.4312601e+00   1.0692734e+04
 3.4359400e+00   1.0725481e+04
 3.4406199e+00   1.0730162e+04
 3.4453001e+00   1.0716073e+04
 3.4499800e+00   1.0760097e+04
 3.4546599e+00   1.0712623e+04
 3.4593401e+00   1.0718828e+04
 3.4640200e+00   1.0753294e+04
 3.4686999e+00   1.0704919e+04
 3.4733801e+00   1.0734855e+04
 3.4780600e+00   1.0753743e+04
 3.4827399e+00   1.0710359e+04
 3.4874201e+00   1.0732444e+04
 3.4921000e+00   1.0726911e+04
 3.4967799e+00   1.0680858e+04
 3.5014601e+00   1.0711348e+04
 3.5061400e+00   1.0712317e+04
 3.5108199e+00   1.0687983e+04
 3.5155001e+00   1.0732219e+04
 3.5201800e+00   1.0708985e+04
 3.5248599e+00   1.0697486e+04
 3.5295401e+00   1.0748746e+04
 3.5342200e+00   1.0696629e+04
 3.5388999e+00   1.0743184e+04
 3.5435801e+00   1.0736636e+04
 3.5482600e+00   1.0666334e+04
 3.5529399e+00   1.0722826e+04
 3.5576200e+00   1.0709167e+04
 3.5623000e+00   1.0707200e+04
 3.5669799e+00   1.0737534e+04
 3.5716600e+00   1.0720487e+04
 3.5763400e+00   1.0708443e+04
 3.5810201e+00   1.0742871e+04
 3.5857000e+00   1.0674094e+04
 3.5903800e+00   1.0719724e+04
 3.5950601e+00   1.0718270e+04
 3.5997400e+00   1.0662541e+04
 3.6044199e+00   1.0714058e+04
 3.6091001e+00   1.0708423e+04
 3.6137800e+00   1.0663937e+04
 3.6184599e+00   1.0713944e+04
 3.6231401e+00   1.0656577e+04
 3.6278200e+00   1.0639272e+04
 3.6324999e+00   1.0699915e+04
 3.6371801e+00   1.0616469e+04
 3.6418600e+00   1.0699035e+04
 3.6465399e+00   1.0679637e+04
 3.6512201e+00   1.0616841e+04
 3.6559000e+00   1.0707720e+04
 3.6605799e+00   1.0652864e+04
 3.6652601e+00   1.0634278e+04
 3.6699400e+00   1.0671129e+04
 3.6746199e+00   1.0554117e+04
 3.6793001e+00   1.0585096e+04
 3.6839800e+00   1.0602752e+04
 3.6886599e+00   1.0487015e+04
 3.6933401e+00   1.0560988e+04
 3.6980200e+00   1.0470177e+04
 3.7026999e+00   1.0422267e+04
 3.7073801e+00   1.0521812e+04
 3.7120600e+00   1.0375490e+04
 3.7167399e+00   1.0381019e+04
 3.7214200e+00   1.0449771e+04
 3.7261000e+00   1.0264202e+04
 3.7307799e+00   1.0296595e+04
 3.7354600e+00   1.0256216e+04
 3.7401400e+00   1.0189763e+04
 3.7448201e+00   1.0184167e+04
 3.7495000e+00   1.0147201e+04
 3.7541800e+00   1.0027392e+04
 3.7588601e+00   1.0082964e+04
 3.7635400e+00   9.9160752e+03
 3.7682199e+00   9.9443479e+03
 3.7729001e+00   9.9009157e+03
 3.7775800e+00   9.7999301e+03
 3.7822599e+00   9.7883284e+03
 3.7869401e+00   9.8238967e+03
 3.7916200e+00   9.6319645e+03
 3.7962999e+00   9.8204471e+03
 3.8009801e+00   9.6627358e+03
 3.8056600e+00   9.6572016e+03
 3.8103399e+00   9.6722695e+03
 3.8150201e+00   9.5577897e+03
 3.8197000e+00   9.5780613e+03
 3.8243799e+00   9.6153475e+03
 3.8290601e+00   9.5088505e+03
 3.8337400e+00   9.5432959e+03
 3.8384199e+00   9.5117255e+03
 3.8431001e+00   9.3557655e+03
 3.8477800e+00   9.5388564e+03
 3.8524599e+00   9.3593347e+03
 3.8571401e+00   9.4004517e+03
 3.8618200e+00   9.3570562e+03
 3.8664999e+00   9.2900769e+03
 3.8711801e+00   9.3446396e+03
 3.8758600e+00   9.2659009e+03
 3.8805399e+00   9.1706574e+03
 3.8852201e+00   9.2968267e+03
 3.8899000e+00   9.1595227e+03
 3.8945799e+00   9.1018432e+03
 3.8992600e+00   9.1448861e+03
 3.9039400e+00   9.0779424e+03
 3.9086201e+00   8.9714402e+03
 3.9133000e+00   9.0547384e+03
 3.9179800e+00   8.9396426e+03
 3.9226601e+00   8.9519606e+03
 3.9273400e+00   8.9492000e+03
 3.9320199e+00   8.8814192e+03
 3.9367001e+00   8.8794794e+03
 3.9413800e+00   8.8699205e+03
 3.9460599e+00   8.7814898e+03
 3.9507401e+00   8.8204029e+03
 3.9554200e+00   8.7956077e+03
 3.9600999e+00   8.7428721e+03
 3.9647801e+00   8.7278220e+03
 3.9694600e+00   8.6802962e+03
 3.9741399e+00   8.6581891e+03
 3.9788201e+00   8.6750724e+03
 3.9835000e+00   8.6308503e+03
 3.9881799e+00   8.6162741e+03
 3.9928601e+00   8.5769389e+03
 3.9975400e+00   8.5094819e+03
 4.0022202e+00   8.5884982e+03
 4.0068998e+00   8.4577055e+03
 4.0115800e+00   8.5313961e+03
 4.0162601e+00   8.5050449e+03
 4.0209398e+00   8.4030032e+03
 4.0256200e+00   8.4280318e+03
 4.0303001e+00   8.4085766e+03
 4.0349798e+00   8.3548227e+03
 4.0396600e+00   8.4484283e+03
 4.0443401e+00   8.2908890e+03
 4.0490198e+00   8.2978861e+03
 4.0537000e+00   8.3169647e+03
 4.0583801e+00   8.2595622e+03
 4.0630598e+00   8.2566229e+03
 4.0677400e+00   8.2955377e+03
 4.0724201e+00   8.1926570e+03
 4.0770998e+00   8.2573577e+03
 4.0817800e+00   8.1873791e+03
 4.0864601e+00   8.1662749e+03
 4.0911398e+00   8.2472664e+03
 4.0958200e+00   8.1064240e+03
 4.1005001e+00   8.1527492e+03
 4.1051798e+00   8.1092498e+03
 4.1098599e+00   8.0863902e+03
 4.1145401e+00   8.1228816e+03
 4.1192198e+00   8.0813479e+03
 4.1238999e+00   8.0151437e+03
 4.1285801e+00   8.1153172e+03
 4.1332598e+00   7.9889893e+03
 4.1379399e+00   8.0578295e+03
 4.1426201e+00   8.0367904e+03
 4.1472998e+00   7.9533246e+03
 4.1519799e+00   7.9678994e+03
 4.1566601e+00   7.9778843e+03
 4.1613402e+00   7.8827514e+03
 4.1660199e+00   8.0118651e+03
 4.1707001e+00   7.8692616e+03
 4.1753802e+00   7.8677290e+03
 4.1800599e+00   7.9016751e+03
 4.1847401e+00   7.8429581e+03
 4.1894202e+00   7.8900646e+03
 4.1940999e+00   7.8776699e+03
 4.1987801e+00   7.8189465e+03
 4.2034602e+00   7.9527485e+03
 4.2081399e+00   7.8565947e+03
 4.2128201e+00   7.8749754e+03
 4.2175002e+00   8.0028395e+03
 4.2221799e+00   7.8598222e+03
 4.2268600e+00   7.8611919e+03
 4.2315402e+00   7.8849345e+03
 4.2362199e+00   7.7796908e+03
 4.2409000e+00   7.9013796e+03
 4.2455802e+00   7.8921481e+03
 4.2502599e+00   7.8531030e+03
 4.2549400e+00   7.9887562e+03
 4.2596202e+00   7.9894088e+03
 4.2642999e+00   8.0889229e+03
 4.2689800e+00   8.2521801e+03
 4.2736602e+00   8.4797268e+03
 4.2783399e+00   8.6324473e+03
 4.2830200e+00   8.7804922e+03
 4.2877002e+00   8.9034893e+03
 4.2923799e+00   9.1196200e+03
 4.2970600e+00   9.2033429e+03
 4.3017402e+00   9.2067816e+03
 4.3064198e+00   9.2670814e+03
 4.3111000e+00   9.2155306e+03
 4.3157802e+00   9.1850232e+03
 4.3204598e+00   9.1411030e+03
 4.3251400e+00   9.0036248e+03
 4.3298202e+00   8.9791299e+03
 4.3344998e+00   8.9160431e+03
 4.3391800e+00   8.8684611e+03
 4.3438601e+00   8.8888757e+03
 4.3485398e+00   8.8197280e+03
 4.3532200e+00   8.8040174e+03
 4.3579001e+00   8.7911774e+03
 4.3625798e+00   8.6369821e+03
 4.3672600e+00   8.6349195e+03
 4.3719401e+00   8.4963174e+03
 4.3766198e+00   8.4654346e+03
 4.3813000e+00   8.3659427e+03
 4.3859801e+00   8.3237291e+03
 4.3906598e+00   8.1546780e+03
 4.3953400e+00   8.1769985e+03
 4.4000201e+00   8.0117099e+03
 4.4046998e+00   8.0558719e+03
 4.4093800e+00   7.9153860e+03
 4.4140601e+00   7.8927700e+03
 4.4187398e+00   7.8808059e+03
 4.4234200e+00   7.8129974e+03
 4.4281001e+00   7.7389644e+03
 4.4327798e+00   7.8077811e+03
 4.4374599e+00   7.7110708e+03
 4.4421401e+00   7.7035544e+03
 4.4468198e+00   7.6911191e+03
 4.4514999e+00   7.6101860e+03
 4.4561801e+00   7.6390626e+03
 4.4608598e+00   7.6036333e+03
 4.4655399e+00   7.5619785e+03
 4.4702201e+00   7.5847248e+03
 4.4748998e+00   7.5454814e+03
 4.4795799e+00   7.5063579e+03
 4.4842601e+00   7.5262162e+03
 4.4889398e+00   7.4633015e+03
 4.4936199e+00   7.4417636e+03
 4.4983001e+00   7.4302907e+03
 4.5029802e+00   7.3550044e+03
 4.5076599e+00   7.3225009e+03
 4.5123401e+00   7.2861056e+03
 4.5170202e+00   7.1796588e+03
 4.5216999e+00   7.2095712e+03
 4.5263801e+00   7.1346400e+03
 4.5310602e+00   7.0920041e+03
 4.5357399e+00   7.0915791e+03
 4.5404201e+00   7.0394434e+03
 4.5451002e+00   7.0192117e+03
 4.5497799e+00   7.0076985e+03
 4.5544600e+00   6.9590633e+03
 4.5591402e+00   6.9804781e+03
 4.5638199e+00   6.9383648e+03
 4.5685000e+00   6.8851290e+03
 4.5731802e+00   6.9325906e+03
 4.5778599e+00   6.8850884e+03
 4.5825400e+00   6.8868200e+03
 4.5872202e+00   6.8628342e+03
 4.5918999e+00   6.8423783e+03
 4.5965800e+00   6.8246124e+03
 4.6012602e+00   6.8140633e+03
 4.6059399e+00   6.8037209e+03
 4.6106200e+00   6.7756407e+03
 4.6153002e+00   6.7799359e+03
 4.6199799e+00   6.7451200e+03
 4.6246600e+00   6.7357269e+03
 4.6293402e+00   6.7345465e+03
 4.6340199e+00   6.7114191e+03
 4.6387000e+00   6.7196736e+03
 4.6433802e+00   6.6800800e+03
 4.6480598e+00   6.6761760e+03
 4.6527400e+00   6.6525844e+03
 4.6574202e+00   6.6289732e+03
 4.6620998e+00   6.6503268e+03
 4.6667800e+00   6.6308821e+03
 4.6714602e+00   6.6216214e+03
 4.6761398e+00   6.6189915e+03
 4.6808200e+00   6.5947610e+03
 4.6855001e+00   6.5768514e+03
 4.6901798e+00   6.5902228e+03
 4.6948600e+00   6.6095948e+03
 4.6995401e+00   6.5994564e+03
 4.7042198e+00   6.6081320e+03
 4.7089000e+00   6.5938778e+03
 4.7135801e+00   6.6594558e+03
 4.7182598e+00   6.6578015e+03
 4.7229400e+00   6.7465712e+03
 4.7276201e+00   6.7521613e+03
 4.7322998e+00   6.8177857e+03
 4.7369800e+00   6.8690024e+03
 4.7416601e+00   6.9100834e+03
 4.7463398e+00   6.9542903e+03
 4.7510200e+00   7.0271585e+03
 4.7557001e+00   7.0542073e+03
 4.7603798e+00   7.1431288e+03
 4.7650599e+00   7.2157270e+03
 4.7697401e+00   7.3277260e+03
 4.7744198e+00   7.4541392e+03
 4.7790999e+00   7.6215221e+03
 4.7837801e+00   7.7641097e+03
 4.7884598e+00   8.0043228e+03
 4.7931399e+00   8.2018181e+03
 4.7978201e+00   8.4223466e+03
 4.8024998e+00   8.6390172e+03
 4.8071799e+00   8.8305655e+03
 4.8118601e+00   8.9981428e+03
 4.8165398e+00   9.0951673e+03
 4.8212199e+00   9.2206148e+03
 4.8259001e+00   9.2567416e+03
 4.8305802e+00   9.2545554e+03
 4.8352599e+00   9.2136931e+03
 4.8399401e+00   9.1151828e+03
 4.8446202e+00   8.9360639e+03
 4.8492999e+00   8.7204009e+03
 4.8539801e+00   8.4727590e+03
 4.8586602e+00   8.2015198e+03
 4.8633399e+00   7.9526207e+03
 4.8680201e+00   7.7258397e+03
 4.8727002e+00   7.5268907e+03
 4.8773799e+00   7.3994340e+03
 4.8820601e+00   7.3173760e+03
 4.8867402e+00   7.2544129e+03
 4.8914199e+00   7.2800103e+03
 4.8961000e+00   7.3362612e+03
 4.9007802e+00   7.3754152e+03
 4.9054599e+00   7.4553673e+03
 4.9101400e+00   7.5703045e+03
 4.9148202e+00   7.6668456e+03
 4.9194999e+00   7.7669084e+03
 4.9241800e+00   7.8637799e+03
 4.9288602e+00   7.9547746e+03
 4.9335399e+00   8.0277176e+03
 4.9382200e+00   8.1259416e+03
 4.9429002e+00   8.1997632e+03
 4.9475799e+00   8.3201522e+03
 4.9522600e+00   8.4136338e+03
 4.9569402e+00   8.5434642e+03
 4.9616199e+00   8.6635569e+03
 4.9663000e+00   8.8138722e+03
 4.9709802e+00   8.9293983e+03
 4.9756598e+00   9.0729269e+03
 4.9803400e+00   9.1817285e+03
 4.9850202e+00   9.2800619e+03
 4.9896998e+00   9.3033005e+03
 4.9943800e+00   9.2869348e+03
 4.9990602e+00   9.2190756e+03
 5.0037398e+00   9.0871437e+03
 5.0084200e+00   8.8998035e+03
 5.0131001e+00   8.6732222e+03
 5.0177798e+00   8.4231581e+03
 5.0224600e+00   8.1812509e+03
 5.0271401e+00   7.9081680e+03
 5.0318198e+00   7.6480973e+03
 5.0365000e+00   7.4503869e+03
 5.0411801e+00   7.2434509e+03
 5.0458598e+00   7.0872830e+03
 5.0505400e+00   6.9395712e+03
 5.0552201e+00   6.8498660e+03
 5.0598998e+00   6.7538694e+03
 5.0645800e+00   6.7136148e+03
 5.0692601e+00   6.7024524e+03
 5.0739398e+00   6.7187468e+03
 5.0786200e+00   6.7959063e+03
 5.0833001e+00   6.9274039e+03
 5.0879798e+00   7.0423087e+03
 5.0926600e+00   7.4121561e+03
 5.0973401e+00   7.6792207e+03
 5.1020198e+00   8.1343973e+03
 5.1066999e+00   9.3850938e+03
 5.1113801e+00   1.0333158e+04
 5.1160598e+00   1.2647856e+04
 5.1207399e+00   1.6993000e+04
 5.1254201e+00   2.0834395e+04
 5.1300998e+00   3.0380895e+04
 5.1347799e+00   3.9167014e+04
 5.1394601e+00   4.3475566e+04
 5.1441398e+00   5.1112895e+04
 5.1488199e+00   4.7235855e+04
 5.1535001e+00   4.1359564e+04
 5.1581802e+00   3.5906941e+04
 5.1628599e+00   2.5884939e+04
 5.1675401e+00   1.9189979e+04
 5.1722202e+00   1.4671582e+04
 5.1768999e+00   1.0864772e+04
 5.1815801e+00   9.3593862e+03
 5.1862602e+00   8.0171884e+03
 5.1909399e+00   7.2785705e+03
 5.1956201e+00   7.0335498e+03
 5.2003002e+00   6.7128954e+03
 5.2049799e+00   6.5292955e+03
 5.2096601e+00   6.4103076e+03
 5.2143402e+00   6.3054918e+03
 5.2190199e+00   6.2529393e+03
 5.2237000e+00   6.1812341e+03
 5.2283802e+00   6.1065940e+03
 5.2330599e+00   6.0974134e+03
 5.2377400e+00   6.0608297e+03
 5.2424202e+00   6.0170181e+03
 5.2470999e+00   6.0046921e+03
 5.2517800e+00   5.9671279e+03
 5.2564602e+00   5.9676124e+03
 5.2611399e+00   5.9289682e+03
 5.2658200e+00   5.9166115e+03
 5.2705002e+00   5.9278206e+03
 5.2751799e+00   5.8927957e+03
 5.2798600e+00   5.8864339e+03
 5.2845402e+00   5.8744544e+03
 5.2892199e+00   5.8663571e+03
 5.2939000e+00   5.8692943e+03
 5.2985802e+00   5.8700395e+03
 5.3032598e+00   5.8537808e+03
 5.3079400e+00   5.8546409e+03
 5.3126202e+00   5.8459451e+03
 5.3172998e+00   5.8571129e+03
 5.3219800e+00   5.8322694e+03
 5.3266602e+00   5.8302547e+03
 5.3313398e+00   5.8340050e+03
 5.3360200e+00   5.8199681e+03
 5.3407001e+00   5.8107751e+03
 5.3453798e+00   5.8052039e+03
 5.3500600e+00   5.8009924e+03
 5.3547401e+00   5.8095079e+03
 5.3594198e+00   5.8095930e+03
 5.3641000e+00   5.8003416e+03
 5.3687801e+00   5.8082062e+03
 5.3734598e+00   5.8134414e+03
 5.3781400e+00   5.8026690e+03
 5.3828201e+00   5.8022168e+03
 5.3874998e+00   5.8040155e+03
 5.3921800e+00   5.8239067e+03
 5.3968601e+00   5.8338319e+03
 5.4015398e+00   5.8191789e+03
 5.4062200e+00   5.8458524e+03
 5.4109001e+00   5.8565520e+03
 5.4155798e+00   5.8502367e+03
 5.4202600e+00   5.8673515e+03
 5.4249401e+00   5.8768108e+03
 5.4296198e+00   5.8881026e+03
 5.4342999e+00   5.9136159e+03
 5.4389801e+00   5.9046878e+03
 5.4436598e+00   5.9406077e+03
 5.4483399e+00   5.9532272e+03
 5.4530201e+00   5.9872964e+03
 5.4576998e+00   6.0271142e+03
 5.4623799e+00   6.0553719e+03
 5.4670601e+00   6.0779042e+03
 5.4717398e+00   6.1360398e+03
 5.4764199e+00   6.1907021e+03
 5.4811001e+00   6.2711608e+03
 5.4857798e+00   6.3452313e+03
 5.4904599e+00   6.4253601e+03
 5.4951401e+00   6.5471674e+03
 5.4998202e+00   6.6678742e+03
 5.5044999e+00   6.8825577e+03
 5.5091801e+00   7.0717163e+03
 5.5138602e+00   7.3104255e+03
 5.5185399e+00   7.6406962e+03
 5.5232201e+00   7.9889982e+03
 5.5279002e+00   8.4146893e+03
 5.5325799e+00   8.9402485e+03
 5.5372601e+00   9.4425414e+03
 5.5419402e+00   1.0056350e+04
 5.5466199e+00   1.0575828e+04
 5.5513000e+00   1.1105220e+04
 5.5559802e+00   1.1516621e+04
 5.5606599e+00   1.1823358e+04
 5.5653400e+00   1.1943830e+04
 5.5700202e+00   1.1959292e+04
 5.5746999e+00   1.1845616e+04
 5.5793800e+00   1.1612884e+04
 5.5840602e+00   1.1332582e+04
 5.5887399e+00   1.0946811e+04
 5.5934200e+00   1.0576724e+04
 5.5981002e+00   1.0184708e+04
 5.6027799e+00   9.7916237e+03
 5.6074600e+00   9.4538698e+03
 5.6121402e+00   9.1011751e+03
 5.6168199e+00   8.7780712e+03
 5.6215000e+00   8.5071496e+03
 5.6261802e+00   8.2368967e+03
 5.6308599e+00   7.9806595e+03
 5.6355400e+00   7.7736888e+03
 5.6402202e+00   7.5857106e+03
 5.6448998e+00   7.3930032e+03
 5.6495800e+00   7.2354553e+03
 5.6542602e+00   7.0775132e+03
 5.6589398e+00   6.9492880e+03
 5.6636200e+00   6.8107558e+03
 5.6683002e+00   6.7000094e+03
 5.6729798e+00   6.6124061e+03
 5.6776600e+00   6.5153240e+03
 5.6823401e+00   6.4146946e+03
 5.6870198e+00   6.3650550e+03
 5.6917000e+00   6.2965151e+03
 5.6963801e+00   6.2412025e+03
 5.7010598e+00   6.2063461e+03
 5.7057400e+00   6.1541884e+03
 5.7104201e+00   6.1283311e+03
 5.7150998e+00   6.0948249e+03
 5.7197800e+00   6.0882927e+03
 5.7244601e+00   6.0793660e+03
 5.7291398e+00   6.0647564e+03
 5.7338200e+00   6.0441785e+03
 5.7385001e+00   6.0495139e+03
 5.7431798e+00   6.0530972e+03
 5.7478600e+00   6.0628747e+03
 5.7525401e+00   6.0542887e+03
 5.7572198e+00   6.0655303e+03
 5.7618999e+00   6.0680818e+03
 5.7665801e+00   6.0715121e+03
 5.7712598e+00   6.0474314e+03
 5.7759399e+00   6.0479546e+03
 5.7806201e+00   6.0072982e+03
 5.7852998e+00   6.0207950e+03
 5.7899799e+00   6.0180709e+03
 5.7946601e+00   6.0050271e+03
 5.7993398e+00   6.0102297e+03
 5.8040199e+00   5.9978128e+03
 5.8087001e+00   5.9877958e+03
 5.8133798e+00   5.9996523e+03
 5.8180599e+00   6.0008590e+03
 5.8227401e+00   6.0113095e+03
 5.8274202e+00   6.0164403e+03
 5.8320999e+00   6.0069530e+03
 5.8367801e+00   6.0316056e+03
 5.8414602e+00   6.0486486e+03
 5.8461399e+00   6.0703355e+03
 5.8508201e+00   6.1038817e+03
 5.8555002e+00   6.1313934e+03
 5.8601799e+00   6.1725236e+03
 5.8648601e+00   6.2046122e+03
 5.8695402e+00   6.2570792e+03
 5.8742199e+00   6.3111328e+03
 5.8789001e+00   6.3755346e+03
 5.8835802e+00   6.4647300e+03
 5.8882599e+00   6.5615542e+03
 5.8929400e+00   6.6469414e+03
 5.8976202e+00   6.8266237e+03
 5.9022999e+00   6.9998741e+03
 5.9069800e+00   7.2999021e+03
 5.9116602e+00   7.7387584e+03
 5.9163399e+00   8.3400485e+03
 5.9210200e+00   9.1667710e+03
 5.9257002e+00   1.0420306e+04
 5.9303799e+00   1.1957789e+04
 5.9350600e+00   1.3340494e+04
 5.9397402e+00   1.4124659e+04
 5.9444199e+00   1.4262303e+04
 5.9491000e+00   1.3961707e+04
 5.9537802e+00   1.3068369e+04
 5.9584599e+00   1.1914346e+04
 5.9631400e+00   1.0759806e+04
 5.9678202e+00   9.9440297e+03
 5.9724998e+00   9.3428890e+03
 5.9771800e+00   8.9646299e+03
 5.9818602e+00   8.7300049e+03
 5.9865398e+00   8.5860471e+03
 5.9912200e+00   8.4200159e+03
 5.9959002e+00   8.2525901e+03
 6.0005798e+00   8.1233738e+03
 6.0052600e+00   7.9290882e+03
 6.0099401e+00   7.7873188e+03
 6.0146198e+00   7.5998624e+03
 6.0193000e+00   7.4042268e+03
 6.0239801e+00   7.2899835e+03
 6.0286598e+00   7.1013689e+03
 6.0333400e+00   6.9575127e+03
 6.0380201e+00   6.8506790e+03
 6.0426998e+00   6.7085392e+03
 6.0473800e+00   6.6133559e+03
 6.0520601e+00   6.5182740e+03
 6.0567398e+00   6.3980866e+03
 6.0614200e+00   6.3732653e+03
 6.0661001e+00   6.2695580e+03
 6.0707798e+00   6.2111733e+03
 6.0754600e+00   6.1804194e+03
 6.0801401e+00   6.1287252e+03
 6.0848198e+00   6.0738871e+03
 6.0895000e+00   6.0627750e+03
 6.0941801e+00   6.0026631e+03
 6.0988598e+00   6.0048452e+03
 6.1035399e+00   5.9810509e+03
 6.1082201e+00   5.9482440e+03
 6.1128998e+00   5.9401889e+03
 6.1175799e+00   5.9327346e+03
 6.1222601e+00   5.9108790e+03
 6.1269398e+00   5.9130532e+03
 6.1316199e+00   5.8787495e+03
 6.1363001e+00   5.8937057e+03
 6.1409798e+00   5.8930173e+03
 6.1456599e+00   5.8607736e+03
 6.1503401e+00   5.8794953e+03
 6.1550202e+00   5.8591151e+03
 6.1596999e+00   5.8545643e+03
 6.1643801e+00   5.8667091e+03
 6.1690602e+00   5.8506276e+03
 6.1737399e+00   5.8483907e+03
 6.1784201e+00   5.8692023e+03
 6.1831002e+00   5.8375858e+03
 6.1877799e+00   5.8564631e+03
 6.1924601e+00   5.8406490e+03
 6.1971402e+00   5.8402599e+03
 6.2018199e+00   5.8635581e+03
 6.2065001e+00   5.8679833e+03
 6.2111802e+00   5.8544414e+03
 6.2158599e+00   5.8683422e+03
 6.2205400e+00   5.8572257e+03
 6.2252202e+00   5.8584130e+03
 6.2298999e+00   5.8721768e+03
 6.2345800e+00   5.8522672e+03
 6.2392602e+00   5.8727654e+03
 6.2439399e+00   5.8829093e+03
 6.2486200e+00   5.8748766e+03
 6.2533002e+00   5.8714665e+03
 6.2579799e+00   5.8694555e+03
 6.2626600e+00   5.8820668e+03
 6.2673402e+00   5.8842997e+03
 6.2720199e+00   5.8509662e+03
 6.2767000e+00   5.8972575e+03
 6.2813802e+00   5.8745357e+03
 6.2860599e+00   5.8883009e+03
 6.2907400e+00   5.8858062e+03
 6.2954202e+00   5.9016159e+03
 6.3000998e+00   5.8857246e+03
 6.3047800e+00   5.9212112e+03
 6.3094602e+00   5.8905444e+03
 6.3141398e+00   5.9198346e+03
 6.3188200e+00   5.9146548e+03
 6.3235002e+00   5.9022047e+03
 6.3281798e+00   5.9488802e+03
 6.3328600e+00   5.9266443e+03
 6.3375401e+00   5.9505444e+03
 6.3422198e+00   5.9438550e+03
 6.3469000e+00   5.9201835e+03
 6.3515801e+00   5.9409388e+03
 6.3562598e+00   5.9622281e+03
 6.3609400e+00   5.9266770e+03
 6.3656201e+00   5.9584331e+03
 6.3702998e+00   5.9304364e+03
 6.3749800e+00   5.9486099e+03
 6.3796601e+00   5.9365333e+03
 6.3843398e+00   5.9610313e+03
 6.3890200e+00   5.9450874e+03
 6.3937001e+00   5.9629888e+03
 6.3983798e+00   5.9405784e+03
 6.4030600e+00   5.9609038e+03
 6.4077401e+00   5.9704777e+03
 6.4124198e+00   5.9627124e+03
 6.4171000e+00   5.9961605e+03
 6.4217801e+00   5.9721732e+03
 6.4264598e+00   5.9837810e+03
 6.4311399e+00   5.9882944e+03
 6.4358201e+00   5.9884192e+03
 6.4404998e+00   6.0119552e+03
 6.4451799e+00   6.0116130e+03
 6.4498601e+00   5.9893752e+03
 6.4545398e+00   5.9971286e+03
 6.4592199e+00   6.0060723e+03
 6.4639001e+00   6.0023702e+03
 6.4685798e+00   6.0173214e+03
 6.4732599e+00   5.9985535e+03
 6.4779401e+00   6.0148529e+03
 6.4826198e+00   6.0194520e+03
 6.4872999e+00   6.0201128e+03
 6.4919801e+00   6.0183911e+03
 6.4966602e+00   6.0549606e+03
 6.5013399e+00   6.0075582e+03
 6.5060201e+00   6.0522167e+03
 6.5107002e+00   6.0270242e+03
 6.5153799e+00   6.0518081e+03
 6.5200601e+00   6.0683294e+03
 6.5247402e+00   6.0737338e+03
 6.5294199e+00   6.0598042e+03
 6.5341001e+00   6.0844297e+03
 6.5387802e+00   6.0774203e+03
 6.5434599e+00   6.0905812e+03
 6.5481400e+00   6.1122015e+03
 6.5528202e+00   6.0977589e+03
 6.5574999e+00   6.1342831e+03
 6.5621800e+00   6.1041397e+03
 6.5668602e+00   6.1293310e+03
 6.5715399e+00   6.1427696e+03
 6.5762200e+00   6.1238520e+03
 6.5809002e+00   6.1504777e+03
 6.5855799e+00   6.1571354e+03
 6.5902600e+00   6.1417147e+03
 6.5949402e+00   6.1872590e+03
 6.5996199e+00   6.1501943e+03
 6.6043000e+00   6.1985099e+03
 6.6089802e+00   6.2103866e+03
 6.6136599e+00   6.2204293e+03
 6.6183400e+00   6.2448264e+03
 6.6230202e+00   6.2385981e+03
 6.6276999e+00   6.2331148e+03
 6.6323800e+00   6.2735962e+03
 6.6370602e+00   6.2689646e+03
 6.6417398e+00   6.2689332e+03
 6.6464200e+00   6.3413845e+03
 6.6511002e+00   6.2949896e+03
 6.6557798e+00   6.3506612e+03
 6.6604600e+00   6.3380489e+03
 6.6651402e+00   6.3632497e+03
 6.6698198e+00   6.3401422e+03
 6.6745000e+00   6.3877997e+03
 6.6791801e+00   6.3734738e+03
 6.6838598e+00   6.4192069e+03
 6.6885400e+00   6.3426060e+03
 6.6932201e+00   6.4173242e+03
 6.6978998e+00   6.3515226e+03
 6.7025800e+00   6.4253200e+03
 6.7072601e+00   6.4273261e+03
 6.7119398e+00   6.4326438e+03
 6.7166200e+00   6.4399712e+03
 6.7213001e+00   6.4609629e+03
 6.7259798e+00   6.4832770e+03
 6.7306600e+00   6.4664617e+03
 6.7353401e+00   6.5453220e+03
 6.7400198e+00   6.5058092e+03
 6.7447000e+00   6.5535875e+03
 6.7493801e+00   6.5123088e+03
 6.7540598e+00   6.5790469e+03
 6.7587399e+00   6.5849112e+03
 6.7634201e+00   6.6088162e+03
 6.7680998e+00   6.6017218e+03
 6.7727799e+00   6.6981011e+03
 6.7774601e+00   6.6128809e+03
 6.7821398e+00   6.7102090e+03
 6.7868199e+00   6.6613671e+03
 6.7915001e+00   6.7091742e+03
 6.7961798e+00   6.6816253e+03
 6.8008599e+00   6.6969047e+03
 6.8055401e+00   6.6918512e+03
 6.8102198e+00   6.7346448e+03
 6.8148999e+00   6.7232478e+03
 6.8195801e+00   6.7685628e+03
 6.8242602e+00   6.7876799e+03
 6.8289399e+00   6.7677860e+03
 6.8336201e+00   6.8184408e+03
 6.8383002e+00   6.7910890e+03
 6.8429799e+00   6.8444544e+03
 6.8476601e+00   6.8968655e+03
 6.8523402e+00   6.8916676e+03
 6.8570199e+00   6.9224148e+03
 6.8617001e+00   6.9770593e+03
 6.8663802e+00   7.0107703e+03
 6.8710599e+00   7.0706532e+03
 6.8757401e+00   7.1306774e+03
 6.8804202e+00   7.1890904e+03
 6.8850999e+00   7.2173427e+03
 6.8897800e+00   7.3221908e+03
 6.8944602e+00   7.3633261e+03
 6.8991399e+00   7.4727128e+03
 6.9038200e+00   7.5377205e+03
 6.9085002e+00   7.6428823e+03
 6.9131799e+00   7.6577329e+03
 6.9178600e+00   7.8424802e+03
 6.9225402e+00   7.8833417e+03
 6.9272199e+00   7.9981036e+03
 6.9319000e+00   8.0148743e+03
 6.9365802e+00   8.1234117e+03
 6.9412599e+00   8.0586348e+03
 6.9459400e+00   8.1653757e+03
 6.9506202e+00   8.1660851e+03
 6.9552999e+00   8.1843415e+03
 6.9599800e+00   8.1751465e+03
 6.9646602e+00   8.1924399e+03
 6.9693398e+00   8.1091200e+03
 6.9740200e+00   8.1529578e+03
 6.9787002e+00   8.1028960e+03
 6.9833798e+00   8.0942613e+03
 6.9880600e+00   8.0825568e+03
 6.9927402e+00   8.0574701e+03
 6.9974198e+00   8.0240057e+03
 7.0021000e+00   7.9657650e+03
 7.0067801e+00   7.9904863e+03
 7.0114598e+00   7.9554623e+03
 7.0161400e+00   7.9207721e+03
 7.0208201e+00   7.8565407e+03
 7.0254998e+00   7.8581630e+03
 7.0301800e+00   7.7612275e+03
 7.0348601e+00   7.7776012e+03
 7.0395398e+00   7.7034415e+03
 7.0442200e+00   7.7049146e+03
 7.0489001e+00   7.6107119e+03
 7.0535798e+00   7.6064191e+03
 7.0582600e+00   7.5489526e+03
 7.0629401e+00   7.5784480e+03
 7.0676198e+00   7.4464106e+03
 7.0723000e+00   7.4528163e+03
 7.0769801e+00   7.3511458e+03
 7.0816598e+00   7.2532864e+03
 7.0863400e+00   7.2057107e+03
 7.0910201e+00   7.0763652e+03
 7.0956998e+00   7.0379901e+03
 7.1003799e+00   6.9936495e+03
 7.1050601e+00   6.9605813e+03
 7.1097398e+00   6.9053748e+03
 7.1144199e+00   6.8811804e+03
 7.1191001e+00   6.8295356e+03
 7.1237798e+00   6.8532532e+03
 7.1284599e+00   6.7992879e+03
 7.1331401e+00   6.7883228e+03
 7.1378198e+00   6.7640605e+03
 7.1424999e+00   6.7707494e+03
 7.1471801e+00   6.7373663e+03
 7.1518602e+00   6.7420958e+03
 7.1565399e+00   6.7042846e+03
 7.1612201e+00   6.7245091e+03
 7.1659002e+00   6.6763993e+03
 7.1705799e+00   6.6922925e+03
 7.1752601e+00   6.7020086e+03
 7.1799402e+00   6.6689172e+03
 7.1846199e+00   6.6769391e+03
 7.1893001e+00   6.6591551e+03
 7.1939802e+00   6.6592373e+03
 7.1986599e+00   6.6337799e+03
 7.2033401e+00   6.6347601e+03
 7.2080202e+00   6.6273211e+03
 7.2126999e+00   6.6538506e+03
 7.2173800e+00   6.6049138e+03
 7.2220602e+00   6.6173180e+03
 7.2267399e+00   6.6170886e+03
 7.2314200e+00   6.6200955e+03
 7.2361002e+00   6.6165467e+03
 7.2407799e+00   6.6200007e+03
 7.2454600e+00   6.6247634e+03
 7.2501402e+00   6.6505915e+03
 7.2548199e+00   6.6569527e+03
 7.2595000e+00   6.6557869e+03
 7.2641802e+00   6.6809518e+03
 7.2688599e+00   6.6625920e+03
 7.2735400e+00   6.6670728e+03
 7.2782202e+00   6.6583294e+03
 7.2828999e+00   6.6657500e+03
 7.2875800e+00   6.6595128e+03
 7.2922602e+00   6.6570342e+03
 7.2969398e+00   6.6390300e+03
 7.3016200e+00   6.6602873e+03
 7.3063002e+00   6.6519445e+03
 7.3109798e+00   6.6616088e+03
 7.3156600e+00   6.6725694e+03
 7.3203402e+00   6.7031953e+03
 7.3250198e+00   6.6987944e+03
 7.3297000e+00   6.7226334e+03
 7.3343801e+00   6.7443433e+03
 7.3390598e+00   6.7619583e+03
 7.3437400e+00   6.7926353e+03
 7.3484201e+00   6.7844594e+03
 7.3530998e+00   6.8132573e+03
 7.3577800e+00   6.8197074e+03
 7.3624601e+00   6.8509543e+03
 7.3671398e+00   6.8376525e+03
 7.3718200e+00   6.8910206e+03
 7.3765001e+00   6.8836899e+03
 7.3811798e+00   6.8972810e+03
 7.3858600e+00   6.9067878e+03
 7.3905401e+00   6.9275637e+03
 7.3952198e+00   6.9363844e+03
 7.3999000e+00   6.9596123e+03
 7.4045801e+00   6.9701495e+03
 7.4092598e+00   6.9719233e+03
 7.4139400e+00   7.0110996e+03
 7.4186201e+00   6.9986625e+03
 7.4232998e+00   7.0370227e+03
 7.4279799e+00   7.0593073e+03
 7.4326601e+00   7.0841499e+03
 7.4373398e+00   7.1143563e+03
 7.4420199e+00   7.1440358e+03
 7.4467001e+00   7.1656094e+03
 7.4513798e+00   7.1955473e+03
 7.4560599e+00   7.2106148e+03
 7.4607401e+00   7.2211752e+03
 7.4654198e+00   7.2631241e+03
 7.4700999e+00   7.2606345e+03
 7.4747801e+00   7.2961573e+03
 7.4794598e+00   7.2769121e+03
 7.4841399e+00   7.2854745e+03
 7.4888201e+00   7.2941951e+03
 7.4935002e+00   7.3037328e+03
 7.4981799e+00   7.2932768e+03
 7.5028601e+00   7.3151682e+03
 7.5075402e+00   7.3101900e+03
 7.5122199e+00   7.3241421e+03
 7.5169001e+00   7.3139255e+03
 7.5215802e+00   7.3163674e+03
 7.5262599e+00   7.3320849e+03
 7.5309401e+00   7.3264661e+03
 7.5356202e+00   7.3353696e+03
 7.5402999e+00   7.3404977e+03
 7.5449800e+00   7.3524474e+03
 7.5496602e+00   7.3328251e+03
 7.5543399e+00   7.3473934e+03
 7.5590200e+00   7.3234498e+03
 7.5637002e+00   7.3482325e+03
 7.5683799e+00   7.3034569e+03
 7.5730600e+00   7.3038711e+03
 7.5777402e+00   7.2909205e+03
 7.5824199e+00   7.2722570e+03
 7.5871000e+00   7.2335312e+03
 7.5917802e+00   7.2293622e+03
 7.5964599e+00   7.1709080e+03
 7.6011400e+00   7.1509680e+03
 7.6058202e+00   7.0706647e+03
 7.6104999e+00   7.0135357e+03
 7.6151800e+00   6.9693971e+03
 7.6198602e+00   6.8279631e+03
 7.6245399e+00   6.7869651e+03
 7.6292200e+00   6.6890779e+03
 7.6339002e+00   6.6440001e+03
 7.6385798e+00   6.5488386e+03
 7.6432600e+00   6.4950403e+03
 7.6479402e+00   6.4411804e+03
 7.6526198e+00   6.4209073e+03
 7.6573000e+00   6.3455847e+03
 7.6619802e+00   6.3224818e+03
 7.6666598e+00   6.2729971e+03
 7.6713400e+00   6.2532038e+03
 7.6760201e+00   6.2137452e+03
 7.6806998e+00   6.2078443e+03
 7.6853800e+00   6.1835903e+03
 7.6900601e+00   6.1715101e+03
 7.6947398e+00   6.1464503e+03
 7.6994200e+00   6.1245437e+03
 7.7041001e+00   6.1235320e+03
 7.7087798e+00   6.1005193e+03
 7.7134600e+00   6.0874689e+03
 7.7181401e+00   6.0576635e+03
 7.7228198e+00   6.0642857e+03
 7.7275000e+00   6.0346377e+03
 7.7321801e+00   6.0390864e+03
 7.7368598e+00   6.0195917e+03
 7.7415400e+00   6.0240426e+03
 7.7462201e+00   6.0120977e+03
 7.7508998e+00   5.9961599e+03
 7.7555799e+00   5.9550418e+03
 7.7602601e+00   5.9863720e+03
 7.7649398e+00   5.9433784e+03
 7.7696199e+00   5.9196338e+03
 7.7743001e+00   5.9277918e+03
 7.7789798e+00   5.8954254e+03
 7.7836599e+00   5.8969798e+03
 7.7883401e+00   5.8593323e+03
 7.7930198e+00   5.8766878e+03
 7.7976999e+00   5.8675147e+03
 7.8023801e+00   5.8560376e+03
 7.8070598e+00   5.8349873e+03
 7.8117399e+00   5.8445513e+03
 7.8164201e+00   5.7888781e+03
 7.8211002e+00   5.8184421e+03
 7.8257799e+00   5.7934044e+03
 7.8304601e+00   5.7571802e+03
 7.8351402e+00   5.8037831e+03
 7.8398199e+00   5.7708809e+03
 7.8445001e+00   5.7474099e+03
 7.8491802e+00   5.7615617e+03
 7.8538599e+00   5.7492525e+03
 7.8585401e+00   5.7496742e+03
 7.8632202e+00   5.7501748e+03
 7.8678999e+00   5.7099180e+03
 7.8725801e+00   5.7367306e+03
 7.8772602e+00   5.7208639e+03
 7.8819399e+00   5.7015108e+03
 7.8866200e+00   5.6868458e+03
 7.8913002e+00   5.6854554e+03
 7.8959799e+00   5.6746237e+03
 7.9006600e+00   5.6764656e+03
 7.9053402e+00   5.6534057e+03
 7.9100199e+00   5.6766933e+03
 7.9147000e+00   5.6385895e+03
 7.9193802e+00   5.6479339e+03
 7.9240599e+00   5.6481837e+03
 7.9287400e+00   5.6410479e+03
 7.9334202e+00   5.6148370e+03
 7.9380999e+00   5.6342169e+03
 7.9427800e+00   5.5993964e+03
 7.9474602e+00   5.6239146e+03
 7.9521399e+00   5.6093697e+03
 7.9568200e+00   5.5907270e+03
 7.9615002e+00   5.6043895e+03
 7.9661798e+00   5.5861208e+03
 7.9708600e+00   5.5844224e+03
 7.9755402e+00   5.5761668e+03
 7.9802198e+00   5.5524197e+03
 7.9849000e+00   5.5730785e+03
 7.9895802e+00   5.5563544e+03
 7.9942598e+00   5.5451240e+03
 7.9989400e+00   5.5728756e+03
 8.0036201e+00   5.5297236e+03
 8.0082998e+00   5.5420560e+03
 8.0129805e+00   5.5484497e+03
 8.0176601e+00   5.5209218e+03
 8.0223398e+00   5.5312439e+03
 8.0270205e+00   5.5309045e+03
 8.0317001e+00   5.5111450e+03
 8.0363798e+00   5.5435806e+03
 8.0410604e+00   5.5117927e+03
 8.0457401e+00   5.5241056e+03
 8.0504198e+00   5.5331224e+03
 8.0551004e+00   5.5149406e+03
 8.0597801e+00   5.5390347e+03
 8.0644598e+00   5.5491799e+03
 8.0691404e+00   5.5648988e+03
 8.0738201e+00   5.5981215e+03
 8.0784998e+00   5.6101626e+03
 8.0831804e+00   5.6257009e+03
 8.0878601e+00   5.6861811e+03
 8.0925398e+00   5.6722766e+03
 8.0972204e+00   5.7605457e+03
 8.1019001e+00   5.7689069e+03
 8.1065798e+00   5.7773419e+03
 8.1112604e+00   5.8313116e+03
 8.1159401e+00   5.8203604e+03
 8.1206198e+00   5.8253707e+03
 8.1253004e+00   5.8619100e+03
 8.1299801e+00   5.8442831e+03
 8.1346598e+00   5.8621947e+03
 8.1393404e+00   5.8591765e+03
 8.1440201e+00   5.8280289e+03
 8.1486998e+00   5.8935442e+03
 8.1533804e+00   5.8558979e+03
 8.1580601e+00   5.8977517e+03
 8.1627398e+00   5.9115178e+03
 8.1674204e+00   5.9446768e+03
 8.1721001e+00   5.9641520e+03
 8.1767797e+00   6.0147826e+03
 8.1814604e+00   6.0296619e+03
 8.1861401e+00   6.1048932e+03
 8.1908197e+00   6.1443067e+03
 8.1955004e+00   6.2268023e+03
 8.2001801e+00   6.3081936e+03
 8.2048597e+00   6.3748233e+03
 8.2095404e+00   6.4674803e+03
 8.2142200e+00   6.5545523e+03
 8.2188997e+00   6.6352485e+03
 8.2235804e+00   6.7509448e+03
 8.2282600e+00   6.8349233e+03
 8.2329397e+00   6.9211317e+03
 8.2376204e+00   7.0177329e+03
 8.2423000e+00   7.0527300e+03
 8.2469797e+00   7.1363582e+03
 8.2516603e+00   7.1713188e+03
 8.2563400e+00   7.2113825e+03
 8.2610197e+00   7.2297271e+03
 8.2657003e+00   7.2391584e+03
 8.2703800e+00   7.2555582e+03
 8.2750597e+00   7.2569065e+03
 8.2797403e+00   7.2558970e+03
 8.2844200e+00   7.2457070e+03
 8.2890997e+00   7.2119800e+03
 8.2937803e+00   7.1449515e+03
 8.2984600e+00   7.0943788e+03
 8.3031397e+00   6.9850018e+03
 8.3078203e+00   6.9049669e+03
 8.3125000e+00   6.7712741e+03
 8.3171797e+00   6.6571277e+03
 8.3218603e+00   6.5010620e+03
 8.3265400e+00   6.3934270e+03
 8.3312197e+00   6.2603107e+03
 8.3359003e+00   6.1702586e+03
 8.3405800e+00   6.0499372e+03
 8.3452597e+00   5.9833008e+03
 8.3499403e+00   5.8818064e+03
 8.3546200e+00   5.8554536e+03
 8.3592997e+00   5.8014318e+03
 8.3639803e+00   5.7935454e+03
 8.3686600e+00   5.8280382e+03
 8.3733397e+00   5.9317174e+03
 8.3780203e+00   6.0769143e+03
 8.3827000e+00   6.3499933e+03
 8.3873796e+00   6.6193769e+03
 8.3920603e+00   7.1169932e+03
 8.3967400e+00   7.7254345e+03
 8.4014196e+00   8.1702207e+03
 8.4061003e+00   8.6099120e+03
 8.4107800e+00   8.5456732e+03
 8.4154596e+00   8.2448436e+03
 8.4201403e+00   7.8854972e+03
 8.4248199e+00   7.2299601e+03
 8.4294996e+00   6.7503700e+03
 8.4341803e+00   6.3959970e+03
 8.4388599e+00   6.2118525e+03
 8.4435396e+00   6.0866751e+03
 8.4482203e+00   5.9479553e+03
 8.4528999e+00   5.9032287e+03
 8.4575796e+00   5.8957145e+03
 8.4622602e+00   5.9032445e+03
 8.4669399e+00   5.9129444e+03
 8.4716196e+00   5.9468395e+03
 8.4763002e+00   5.9725076e+03
 8.4809799e+00   5.9964103e+03
 8.4856596e+00   6.0492921e+03
 8.4903402e+00   6.0879601e+03
 8.4950199e+00   6.1482784e+03
 8.4996996e+00   6.1709870e+03
 8.5043802e+00   6.2336688e+03
 8.5090599e+00   6.2539137e+03
 8.5137396e+00   6.3212812e+03
 8.5184202e+00   6.3500347e+03
 8.5230999e+00   6.4154570e+03
 8.5277796e+00   6.4483776e+03
 8.5324602e+00   6.5190944e+03
 8.5371399e+00   6.5465996e+03
 8.5418196e+00   6.5912975e+03
 8.5465002e+00   6.6387369e+03
 8.5511799e+00   6.6748212e+03
 8.5558596e+00   6.7129847e+03
 8.5605402e+00   6.7053427e+03
 8.5652199e+00   6.7561251e+03
 8.5698996e+00   6.7241801e+03
 8.5745802e+00   6.7526065e+03
 8.5792599e+00   6.7160637e+03
 8.5839396e+00   6.7123263e+03
 8.5886202e+00   6.6641802e+03
 8.5932999e+00   6.6403473e+03
 8.5979795e+00   6.5777202e+03
 8.6026602e+00   6.5301237e+03
 8.6073399e+00   6.4703079e+03
 8.6120195e+00   6.4112510e+03
 8.6167002e+00   6.3478425e+03
 8.6213799e+00   6.2671878e+03
 8.6260595e+00   6.2189747e+03
 8.6307402e+00   6.1420097e+03
 8.6354198e+00   6.0944289e+03
 8.6400995e+00   6.0195181e+03
 8.6447802e+00   5.9887279e+03
 8.6494598e+00   5.9089506e+03
 8.6541405e+00   5.8722250e+03
 8.6588202e+00   5.8147033e+03
 8.6634998e+00   5.7840869e+03
 8.6681805e+00   5.7408400e+03
 8.6728601e+00   5.7146887e+03
 8.6775398e+00   5.6615646e+03
 8.6822205e+00   5.6494942e+03
 8.6869001e+00   5.6174336e+03
 8.6915798e+00   5.6089942e+03
 8.6962605e+00   5.5853619e+03
 8.7009401e+00   5.5542401e+03
 8.7056198e+00   5.5499634e+03
 8.7103004e+00   5.5328726e+03
 8.7149801e+00   5.5134079e+03
 8.7196598e+00   5.4970490e+03
 8.7243404e+00   5.4907323e+03
 8.7290201e+00   5.4649839e+03
 8.7336998e+00   5.4633375e+03
 8.7383804e+00   5.4458492e+03
 8.7430601e+00   5.4530328e+03
 8.7477398e+00   5.4289962e+03
 8.7524204e+00   5.4309349e+03
 8.7571001e+00   5.4141414e+03
 8.7617798e+00   5.3868431e+03
 8.7664604e+00   5.3880506e+03
 8.7711401e+00   5.3692361e+03
 8.7758198e+00   5.3543041e+03
 8.7805004e+00   5.3410278e+03
 8.7851801e+00   5.3431704e+03
 8.7898598e+00   5.3260375e+03
 8.7945404e+00   5.3220330e+03
 8.7992201e+00   5.2806582e+03
 8.8038998e+00   5.2867531e+03
 8.8085804e+00   5.2592991e+03
 8.8132601e+00   5.2772254e+03
 8.8179398e+00   5.2444512e+03
 8.8226204e+00   5.2362402e+03
 8.8273001e+00   5.2166550e+03
 8.8319798e+00   5.2259623e+03
 8.8366604e+00   5.1802763e+03
 8.8413401e+00   5.1843534e+03
 8.8460197e+00   5.1698855e+03
 8.8507004e+00   5.1467111e+03
 8.8553801e+00   5.1242024e+03
 8.8600597e+00   5.1082209e+03
 8.8647404e+00   5.0902624e+03
 8.8694201e+00   5.0631882e+03
 8.8740997e+00   5.0464238e+03
 8.8787804e+00   5.0391540e+03
 8.8834600e+00   5.0281545e+03
 8.8881397e+00   5.0144160e+03
 8.8928204e+00   5.0318736e+03
 8.8975000e+00   4.9969228e+03
 8.9021797e+00   4.9968193e+03
 8.9068604e+00   4.9780315e+03
 8.9115400e+00   4.9841308e+03
 8.9162197e+00   4.9880907e+03
 8.9209003e+00   4.9726228e+03
 8.9255800e+00   4.9715340e+03
 8.9302597e+00   4.9695111e+03
 8.9349403e+00   4.9644150e+03
 8.9396200e+00   4.9567861e+03
 8.9442997e+00   4.9599980e+03
 8.9489803e+00   4.9588266e+03
 8.9536600e+00   4.9659141e+03
 8.9583397e+00   4.9502547e+03
 8.9630203e+00   4.9569303e+03
 8.9677000e+00   4.9631764e+03
 8.9723797e+00   4.9557772e+03
 8.9770603e+00   4.9463829e+03
 8.9817400e+00   4.9693212e+03
 8.9864197e+00   4.9663421e+03
 8.9911003e+00   4.9699446e+03
 8.9957800e+00   4.9566785e+03
 9.0004597e+00   4.9546725e+03
 9.0051403e+00   4.9513856e+03
 9.0098200e+00   4.9443701e+03
 9.0144997e+00   4.9498572e+03
 9.0191803e+00   4.9425079e+03
 9.0238600e+00   4.9219647e+03
 9.0285397e+00   4.9338680e+03
 9.0332203e+00   4.9354772e+03
 9.0379000e+00   4.9247610e+03
 9.0425797e+00   4.9262851e+03
 9.0472603e+00   4.9112453e+03
 9.0519400e+00   4.9198816e+03
 9.0566196e+00   4.8972832e+03
 9.0613003e+00   4.9120953e+03
 9.0659800e+00   4.9071940e+03
 9.0706596e+00   4.9135278e+03
 9.0753403e+00   4.9029583e+03
 9.0800200e+00   4.9149908e+03
 9.0846996e+00   4.8949572e+03
 9.0893803e+00   4.9179941e+03
 9.0940599e+00   4.9140404e+03
 9.0987396e+00   4.9084328e+03
 9.1034203e+00   4.9242309e+03
 9.1080999e+00   4.9201724e+03
 9.1127796e+00   4.9245456e+03
 9.1174603e+00   4.9321000e+03
 9.1221399e+00   4.9381030e+03
 9.1268196e+00   4.9404473e+03
 9.1315002e+00   4.9640048e+03
 9.1361799e+00   4.9528373e+03
 9.1408596e+00   4.9702672e+03
 9.1455402e+00   4.9616532e+03
 9.1502199e+00   4.9801793e+03
 9.1548996e+00   4.9860528e+03
 9.1595802e+00   4.9926526e+03
 9.1642599e+00   5.0104934e+03
 9.1689396e+00   5.0188949e+03
 9.1736202e+00   5.0250873e+03
 9.1782999e+00   5.0511427e+03
 9.1829796e+00   5.0665865e+03
 9.1876602e+00   5.0674548e+03
 9.1923399e+00   5.0988757e+03
 9.1970196e+00   5.0955758e+03
 9.2017002e+00   5.1295813e+03
 9.2063799e+00   5.1344424e+03
 9.2110596e+00   5.1606269e+03
 9.2157402e+00   5.1799268e+03
 9.2204199e+00   5.2000999e+03
 9.2250996e+00   5.2150745e+03
 9.2297802e+00   5.2485201e+03
 9.2344599e+00   5.2635032e+03
 9.2391396e+00   5.2864447e+03
 9.2438202e+00   5.3179594e+03
 9.2484999e+00   5.3404512e+03
 9.2531796e+00   5.3721610e+03
 9.2578602e+00   5.4071978e+03
 9.2625399e+00   5.4284144e+03
 9.2672195e+00   5.4720131e+03
 9.2719002e+00   5.4884694e+03
 9.2765799e+00   5.5208096e+03
 9.2812595e+00   5.5546726e+03
 9.2859402e+00   5.5641161e+03
 9.2906199e+00   5.5988370e+03
 9.2952995e+00   5.6069101e+03
 9.2999802e+00   5.6340992e+03
 9.3046598e+00   5.6526682e+03
 9.3093395e+00   5.6584307e+03
 9.3140202e+00   5.6788764e+03
 9.3186998e+00   5.6873992e+03
 9.3233805e+00   5.6944215e+03
 9.3280602e+00   5.7085483e+03
 9.3327398e+00   5.7023159e+03
 9.3374205e+00   5.7168905e+03
 9.3421001e+00   5.7064241e+03
 9.3467798e+00   5.6980604e+03
 9.3514605e+00   5.6869648e+03
 9.3561401e+00   5.6616704e+03
 9.3608198e+00   5.6483922e+03
 9.3655005e+00   5.6272603e+03
 9.3701801e+00   5.6044731e+03
 9.3748598e+00   5.5624808e+03
 9.3795404e+00   5.5498655e+03
 9.3842201e+00   5.5137066e+03
 9.3888998e+00   5.4735543e+03
 9.3935804e+00   5.4443748e+03
 9.3982601e+00   5.4158575e+03
 9.4029398e+00   5.3831756e+03
 9.4076204e+00   5.3549709e+03
 9.4123001e+00   5.3272073e+03
 9.4169798e+00   5.3069366e+03
 9.4216604e+00   5.2875737e+03
 9.4263401e+00   5.2567106e+03
 9.4310198e+00   5.2499953e+03
 9.4357004e+00   5.2231387e+03
 9.4403801e+00   5.2195732e+03
 9.4450598e+00   5.1961473e+03
 9.4497404e+00   5.1943487e+03
 9.4544201e+00   5.1808857e+03
 9.4590998e+00   5.1780144e+03
 9.4637804e+00   5.1855333e+03
 9.4684601e+00   5.1836654e+03
 9.4731398e+00   5.1774297e+03
 9.4778204e+00   5.1886469e+03
 9.4825001e+00   5.1893323e+03
 9.4871798e+00   5.1988820e+03
 9.4918604e+00   5.1994251e+03
 9.4965401e+00   5.1976494e+03
 9.5012197e+00   5.2186831e+03
 9.5059004e+00   5.2178432e+03
 9.5105801e+00   5.2214663e+03
 9.5152597e+00   5.2103581e+03
 9.5199404e+00   5.2093680e+03
 9.5246201e+00   5.2121194e+03
 9.5292997e+00   5.2243953e+03
 9.5339804e+00   5.2083275e+03
 9.5386600e+00   5.2262838e+03
 9.5433397e+00   5.2172445e+03
 9.5480204e+00   5.2287539e+03
 9.5527000e+00   5.2337434e+03
 9.5573797e+00   5.2361743e+03
 9.5620604e+00   5.2507749e+03
 9.5667400e+00   5.2513063e+03
 9.5714197e+00   5.2585592e+03
 9.5761003e+00   5.2731192e+03
 9.5807800e+00   5.2848393e+03
 9.5854597e+00   5.2847025e+03
 9.5901403e+00   5.3126499e+03
 9.5948200e+00   5.2975598e+03
 9.5994997e+00   5.3221318e+03
 9.6041803e+00   5.3247623e+03
 9.6088600e+00   5.3314553e+03
 9.6135397e+00   5.3418739e+03
 9.6182203e+00   5.3424319e+03
 9.6229000e+00   5.3292998e+03
 9.6275797e+00   5.3371902e+03
 9.6322603e+00   5.3290139e+03
 9.6369400e+00   5.3357641e+03
 9.6416197e+00   5.3203463e+03
 9.6463003e+00   5.3175785e+03
 9.6509800e+00   5.3155068e+03
 9.6556597e+00   5.3150419e+03
 9.6603403e+00   5.3148542e+03
 9.6650200e+00   5.3264501e+03
 9.6696997e+00   5.3178209e+03
 9.6743803e+00   5.3216962e+03
 9.6790600e+00   5.3224416e+03
 9.6837397e+00   5.3159658e+03
 9.6884203e+00   5.3255014e+03
 9.6931000e+00   5.3002289e+03
 9.6977797e+00   5.2922801e+03
 9.7024603e+00   5.2845534e+03
 9.7071400e+00   5.2735115e+03
 9.7118196e+00   5.2383416e+03
 9.7165003e+00   5.2260643e+03
 9.7211800e+00   5.2015205e+03
 9.7258596e+00   5.1941110e+03
 9.7305403e+00   5.1638883e+03
 9.7352200e+00   5.1544829e+03
 9.7398996e+00   5.1496864e+03
 9.7445803e+00   5.1230899e+03
 9.7492599e+00   5.1123612e+03
 9.7539396e+00   5.0996518e+03
 9.7586203e+00   5.0996519e+03
 9.7632999e+00   5.0821314e+03
 9.7679796e+00   5.0924662e+03
 9.7726603e+00   5.0885060e+03
 9.7773399e+00   5.1125545e+03
 9.7820196e+00   5.1112344e+03
 9.7867002e+00   5.1268511e+03
 9.7913799e+00   5.1525697e+03
 9.7960596e+00   5.1713597e+03
 9.8007402e+00   5.2018614e+03
 9.8054199e+00   5.2542980e+03
 9.8100996e+00   5.3111658e+03
 9.8147802e+00   5.3995481e+03
 9.8194599e+00   5.5303987e+03
 9.8241396e+00   5.7130338e+03
 9.8288202e+00   5.9736214e+03
 9.8334999e+00   6.4653285e+03
 9.8381796e+00   7.1672095e+03
 9.8428602e+00   8.1074907e+03
 9.8475399e+00   9.4942797e+03
 9.8522196e+00   1.0505162e+04
 9.8569002e+00   1.1876142e+04
 9.8615799e+00   1.2405255e+04
 9.8662596e+00   1.2515820e+04
 9.8709402e+00   1.1564919e+04
 9.8756199e+00   1.0683674e+04
 9.8802996e+00   9.1549502e+03
 9.8849802e+00   7.9936713e+03
 9.8896599e+00   7.1793518e+03
 9.8943396e+00   6.6132543e+03
 9.8990202e+00   6.1645244e+03
 9.9036999e+00   5.8870931e+03
 9.9083796e+00   5.7085466e+03
 9.9130602e+00   5.5931873e+03
 9.9177399e+00   5.5333869e+03
 9.9224195e+00   5.4933971e+03
 9.9271002e+00   5.4660098e+03
 9.9317799e+00   5.4426462e+03
 9.9364595e+00   5.4356864e+03
 9.9411402e+00   5.4309350e+03
 9.9458199e+00   5.4089910e+03
 9.9504995e+00   5.4057966e+03
 9.9551802e+00   5.4065118e+03
 9.9598598e+00   5.3922038e+03
 9.9645395e+00   5.3977551e+03
 9.9692202e+00   5.3949017e+03
 9.9738998e+00   5.4004843e+03
 9.9785805e+00   5.3810532e+03
 9.9832602e+00   5.3900231e+03
 9.9879398e+00   5.4008698e+03
 9.9926205e+00   5.3869480e+03
 9.9973001e+00   5.3936490e+03
 1.0001980e+01   5.3871061e+03
 1.0006660e+01   5.3636203e+03
 1.0011340e+01   5.3567416e+03
 1.0016020e+01   5.3583701e+03
 1.0020700e+01   5.3412420e+03
 1.0025380e+01   5.3208141e+03
 1.0030060e+01   5.3022180e+03
 1.0034740e+01   5.2908960e+03
 1.0039420e+01   5.2698421e+03
 1.0044100e+01   5.2684526e+03
 1.0048780e+01   5.2611171e+03
 1.0053460e+01   5.2360817e+03
 1.0058140e+01   5.2400736e+03
 1.0062820e+01   5.2204513e+03
 1.0067500e+01   5.2159884e+03
 1.0072180e+01   5.2026256e+03
 1.0076860e+01   5.1967323e+03
 1.0081540e+01   5.1965133e+03
 1.0086220e+01   5.2075283e+03
 1.0090900e+01   5.1786563e+03
 1.0095580e+01   5.1899918e+03
 1.0100260e+01   5.1963938e+03
 1.0104940e+01   5.1892071e+03
 1.0109620e+01   5.1879117e+03
 1.0114300e+01   5.1802776e+03
 1.0118980e+01   5.1918974e+03
 1.0123660e+01   5.1953956e+03
 1.0128340e+01   5.2049774e+03
 1.0133020e+01   5.1923602e+03
 1.0137700e+01   5.2093185e+03
 1.0142380e+01   5.2145008e+03
 1.0147060e+01   5.2321978e+03
 1.0151740e+01   5.2313567e+03
 1.0156420e+01   5.2466649e+03
 1.0161100e+01   5.2512870e+03
 1.0165780e+01   5.2658608e+03
 1.0170460e+01   5.2890381e+03
 1.0175140e+01   5.3009746e+03
 1.0179820e+01   5.3053594e+03
 1.0184500e+01   5.3211832e+03
 1.0189180e+01   5.3337279e+03
 1.0193860e+01   5.3640224e+03
 1.0198540e+01   5.3782475e+03
 1.0203220e+01   5.3802581e+03
 1.0207900e+01   5.4137650e+03
 1.0212580e+01   5.4216454e+03
 1.0217260e+01   5.4460632e+03
 1.0221940e+01   5.4478924e+03
 1.0226620e+01   5.4655095e+03
 1.0231300e+01   5.4760535e+03
 1.0235980e+01   5.4943168e+03
 1.0240660e+01   5.5013224e+03
 1.0245340e+01   5.5050576e+03
 1.0250020e+01   5.5030575e+03
 1.0254700e+01   5.5430866e+03
 1.0259380e+01   5.5684329e+03
 1.0264060e+01   5.6381804e+03
 1.0268740e+01   5.7620005e+03
 1.0273420e+01   5.9395385e+03
 1.0278100e+01   6.2582281e+03
 1.0282780e+01   6.6615550e+03
 1.0287460e+01   7.1753899e+03
 1.0292140e+01   7.8546911e+03
 1.0296820e+01   8.3354298e+03
 1.0301500e+01   8.5943282e+03
 1.0306180e+01   8.3760969e+03
 1.0310860e+01   8.2162234e+03
 1.0315540e+01   7.6110676e+03
 1.0320220e+01   6.9274455e+03
 1.0324900e+01   6.4396798e+03
 1.0329580e+01   6.0239155e+03
 1.0334260e+01   5.6960826e+03
 1.0338940e+01   5.4825070e+03
 1.0343620e+01   5.3548453e+03
 1.0348300e+01   5.2878774e+03
 1.0352980e+01   5.2360000e+03
 1.0357660e+01   5.2128720e+03
 1.0362340e+01   5.1873993e+03
 1.0367020e+01   5.1674323e+03
 1.0371700e+01   5.1594860e+03
 1.0376380e+01   5.1550555e+03
 1.0381060e+01   5.1617890e+03
 1.0385740e+01   5.1675012e+03
 1.0390420e+01   5.1530892e+03
 1.0395100e+01   5.1546476e+03
 1.0399780e+01   5.1646856e+03
 1.0404460e+01   5.1597401e+03
 1.0409140e+01   5.1705435e+03
 1.0413820e+01   5.1755678e+03
 1.0418500e+01   5.1752113e+03
 1.0423180e+01   5.1811854e+03
 1.0427860e+01   5.1868405e+03
 1.0432540e+01   5.1860960e+03
 1.0437220e+01   5.2047188e+03
 1.0441900e+01   5.2065003e+03
 1.0446580e+01   5.2235304e+03
 1.0451260e+01   5.2304241e+03
 1.0455940e+01   5.2371785e+03
 1.0460620e+01   5.2506035e+03
 1.0465300e+01   5.2629963e+03
 1.0469980e+01   5.2749666e+03
 1.0474660e+01   5.2837416e+03
 1.0479340e+01   5.2910507e+03
 1.0484020e+01   5.2900769e+03
 1.0488700e+01   5.2935108e+03
 1.0493380e+01   5.3007444e+03
 1.0498060e+01   5.3126182e+03
 1.0502740e+01   5.3026494e+03
 1.0507420e+01   5.3104061e+03
 1.0512100e+01   5.2874675e+03
 1.0516780e+01   5.2953337e+03
 1.0521460e+01   5.2839104e+03
 1.0526140e+01   5.2767742e+03
 1.0530820e+01   5.2688365e+03
 1.0535500e+01   5.2604661e+03
 1.0540180e+01   5.2519126e+03
 1.0544860e+01   5.2375863e+03
 1.0549540e+01   5.2172413e+03
 1.0554220e+01   5.2256001e+03
 1.0558900e+01   5.2040708e+03
 1.0563580e+01   5.1910957e+03
 1.0568260e+01   5.1832250e+03
 1.0572940e+01   5.1662378e+03
 1.0577620e+01   5.1556872e+03
 1.0582300e+01   5.1374563e+03
 1.0586980e+01   5.1323246e+03
 1.0591660e+01   5.1085750e+03
 1.0596340e+01   5.1085375e+03
 1.0601020e+01   5.0935778e+03
 1.0605700e+01   5.0844306e+03
 1.0610380e+01   5.0813559e+03
 1.0615060e+01   5.0675761e+03
 1.0619740e+01   5.0615369e+03
 1.0624420e+01   5.0580612e+03
 1.0629100e+01   5.0575251e+03
 1.0633780e+01   5.0435574e+03
 1.0638460e+01   5.0412928e+03
 1.0643140e+01   5.0243414e+03
 1.0647820e+01   5.0256295e+03
 1.0652500e+01   5.0181589e+03
 1.0657180e+01   5.0217826e+03
 1.0661860e+01   5.0128671e+03
 1.0666540e+01   5.0284253e+03
 1.0671220e+01   5.0272714e+03
 1.0675900e+01   5.0229793e+03
 1.0680580e+01   5.0312758e+03
 1.0685260e+01   5.0234715e+03
 1.0689940e+01   5.0311692e+03
 1.0694620e+01   5.0204234e+03
 1.0699300e+01   5.0266274e+03
 1.0703980e+01   5.0276586e+03
 1.0708660e+01   5.0372720e+03
 1.0713340e+01   5.0517087e+03
 1.0718020e+01   5.0519462e+03
 1.0722700e+01   5.0618982e+03
 1.0727380e+01   5.0714195e+03
 1.0732060e+01   5.0686610e+03
 1.0736740e+01   5.0921620e+03
 1.0741420e+01   5.0840797e+03
 1.0746100e+01   5.1040866e+03
 1.0750780e+01   5.1103574e+03
 1.0755460e+01   5.1094219e+03
 1.0760140e+01   5.1097629e+03
 1.0764820e+01   5.1239289e+03
 1.0769500e+01   5.1166127e+03
 1.0774180e+01   5.1201108e+03
 1.0778860e+01   5.1243803e+03
 1.0783540e+01   5.1024242e+03
 1.0788220e+01   5.1122901e+03
 1.0792900e+01   5.0992581e+03
 1.0797580e+01   5.1057407e+03
 1.0802260e+01   5.1038258e+03
 1.0806940e+01   5.0925976e+03
 1.0811620e+01   5.0967319e+03
 1.0816300e+01   5.0889507e+03
 1.0820980e+01   5.0815430e+03
 1.0825660e+01   5.0811534e+03
 1.0830340e+01   5.0739418e+03
 1.0835020e+01   5.0739863e+03
 1.0839700e+01   5.0809888e+03
 1.0844380e+01   5.0588648e+03
 1.0849060e+01   5.0617307e+03
 1.0853740e+01   5.0490134e+03
 1.0858420e+01   5.0365189e+03
 1.0863100e+01   5.0322886e+03
 1.0867780e+01   5.0298225e+03
 1.0872460e+01   5.0186837e+03
 1.0877140e+01   5.0049558e+03
 1.0881820e+01   4.9827545e+03
 1.0886500e+01   4.9852069e+03
 1.0891180e+01   4.9724266e+03
 1.0895860e+01   4.9589996e+03
 1.0900540e+01   4.9442072e+03
 1.0905220e+01   4.9351092e+03
 1.0909900e+01   4.9279727e+03
 1.0914580e+01   4.9101901e+03
 1.0919260e+01   4.8990477e+03
 1.0923940e+01   4.8955336e+03
 1.0928620e+01   4.8871763e+03
 1.0933300e+01   4.8744393e+03
 1.0937980e+01   4.8751186e+03
 1.0942660e+01   4.8616692e+03
 1.0947340e+01   4.8580096e+03
 1.0952020e+01   4.8470540e+03
 1.0956700e+01   4.8257542e+03
 1.0961380e+01   4.8429570e+03
 1.0966060e+01   4.8246082e+03
 1.0970740e+01   4.8311402e+03
 1.0975420e+01   4.8179701e+03
 1.0980100e+01   4.8097516e+03
 1.0984780e+01   4.8105943e+03
 1.0989460e+01   4.8062715e+03
 1.0994140e+01   4.7923299e+03
 1.0998820e+01   4.7988221e+03
 1.1003500e+01   4.7979284e+03
 1.1008180e+01   4.7821057e+03
 1.1012860e+01   4.7950790e+03
 1.1017540e+01   4.7782853e+03
 1.1022220e+01   4.7803417e+03
 1.1026900e+01   4.7915508e+03
 1.1031580e+01   4.7898737e+03
 1.1036260e+01   4.7997812e+03
 1.1040940e+01   4.7997589e+03
 1.1045620e+01   4.8004880e+03
 1.1050300e+01   4.8052984e+03
 1.1054980e+01   4.8087513e+03
 1.1059660e+01   4.8166673e+03
 1.1064340e+01   4.8113852e+03
 1.1069020e+01   4.8207200e+03
 1.1073700e+01   4.8275802e+03
 1.1078380e+01   4.8279560e+03
 1.1083060e+01   4.8478029e+03
 1.1087740e+01   4.8613126e+03
 1.1092420e+01   4.8650719e+03
 1.1097100e+01   4.8793182e+03
 1.1101780e+01   4.8950621e+03
 1.1106460e+01   4.9048091e+03
 1.1111140e+01   4.9336656e+03
 1.1115820e+01   4.9412090e+03
 1.1120500e+01   4.9698685e+03
 1.1125180e+01   4.9565689e+03
 1.1129860e+01   4.9775987e+03
 1.1134540e+01   4.9881921e+03
 1.1139220e+01   4.9773091e+03
 1.1143900e+01   4.9943993e+03
 1.1148580e+01   4.9816938e+03
 1.1153260e+01   4.9855723e+03
 1.1157940e+01   4.9868409e+03
 1.1162620e+01   4.9719063e+03
 1.1167300e+01   4.9736695e+03
 1.1171980e+01   4.9616541e+03
 1.1176660e+01   4.9525693e+03
 1.1181340e+01   4.9479479e+03
 1.1186020e+01   4.9203576e+03
 1.1190700e+01   4.9195624e+03
 1.1195380e+01   4.9026338e+03
 1.1200060e+01   4.8839293e+03
 1.1204740e+01   4.8877232e+03
 1.1209420e+01   4.8798913e+03
 1.1214100e+01   4.8721261e+03
 1.1218780e+01   4.8621448e+03
 1.1223460e+01   4.8523205e+03
 1.1228140e+01   4.8575844e+03
 1.1232820e+01   4.8334919e+03
 1.1237500e+01   4.8168850e+03
 1.1242180e+01   4.8134915e+03
 1.1246860e+01   4.8033876e+03
 1.1251540e+01   4.7869747e+03
 1.1256220e+01   4.7829101e+03
 1.1260900e+01   4.7624498e+03
 1.1265580e+01   4.7533675e+03
 1.1270260e+01   4.7422467e+03
 1.1274940e+01   4.7152659e+03
 1.1279620e+01   4.7145518e+03
 1.1284300e+01   4.7029530e+03
 1.1288980e+01   4.6856632e+03
 1.1293660e+01   4.6943760e+03
 1.1298340e+01   4.6620723e+03
 1.1303020e+01   4.6719020e+03
 1.1307700e+01   4.6618546e+03
 1.1312380e+01   4.6470643e+03
 1.1317060e+01   4.6545691e+03
 1.1321740e+01   4.6311335e+03
 1.1326420e+01   4.6368596e+03
 1.1331100e+01   4.6270302e+03
 1.1335780e+01   4.6089198e+03
 1.1340460e+01   4.6097151e+03
 1.1345140e+01   4.6137110e+03
 1.1349820e+01   4.5937096e+03
 1.1354500e+01   4.5892606e+03
 1.1359180e+01   4.5703837e+03
 1.1363860e+01   4.5747152e+03
 1.1368540e+01   4.5591324e+03
 1.1373220e+01   4.5487656e+03
 1.1377900e+01   4.5602771e+03
 1.1382580e+01   4.5446389e+03
 1.1387260e+01   4.5419722e+03
 1.1391940e+01   4.5446601e+03
 1.1396620e+01   4.5275796e+03
 1.1401300e+01   4.5303515e+03
 1.1405980e+01   4.5300291e+03
 1.1410660e+01   4.5216044e+03
 1.1415340e+01   4.5240018e+03
 1.1420020e+01   4.5158404e+03
 1.1424700e+01   4.5121382e+03
 1.1429380e+01   4.5108983e+03
 1.1434060e+01   4.5094063e+03
 1.1438740e+01   4.4994379e+03
 1.1443420e+01   4.5062796e+03
 1.1448100e+01   4.4942546e+03
 1.1452780e+01   4.5020483e+03
 1.1457460e+01   4.4884184e+03
 1.1462140e+01   4.4931993e+03
 1.1466820e+01   4.4925872e+03
 1.1471500e+01   4.4800851e+03
 1.1476180e+01   4.4933433e+03
 1.1480860e+01   4.4769599e+03
 1.1485540e+01   4.4824761e+03
 1.1490220e+01   4.4761548e+03
 1.1494900e+01   4.4709039e+03
 1.1499580e+01   4.4717326e+03
 1.1504260e+01   4.4702867e+03
 1.1508940e+01   4.4574514e+03
 1.1513620e+01   4.4660968e+03
 1.1518300e+01   4.4603632e+03
 1.1522980e+01   4.4533273e+03
 1.1527660e+01   4.4517593e+03
 1.1532340e+01   4.4367335e+03
 1.1537020e+01   4.4464129e+03
 1.1541700e+01   4.4262537e+03
 1.1546380e+01   4.4273332e+03
 1.1551060e+01   4.4252817e+03
 1.1555740e+01   4.4174357e+03
 1.1560420e+01   4.4304149e+03
 1.1565100e+01   4.4264375e+03
 1.1569780e+01   4.4094620e+03
 1.1574460e+01   4.4177001e+03
 1.1579140e+01   4.4045536e+03
 1.1583820e+01   4.4005338e+03
 1.1588500e+01   4.4003851e+03
 1.1593180e+01   4.4026670e+03
 1.1597860e+01   4.4042571e+03
 1.1602540e+01   4.4018171e+03
 1.1607220e+01   4.3938422e+03
 1.1611900e+01   4.3966832e+03
 1.1616580e+01   4.3905619e+03
 1.1621260e+01   4.3963792e+03
 1.1625940e+01   4.3927662e+03
 1.1630620e+01   4.3912137e+03
 1.1635300e+01   4.3947830e+03
 1.1639980e+01   4.3893523e+03
 1.1644660e+01   4.3763663e+03
 1.1649340e+01   4.3832477e+03
 1.1654020e+01   4.3821745e+03
 1.1658700e+01   4.3743141e+03
 1.1663380e+01   4.3699920e+03
 1.1668060e+01   4.3618556e+03
 1.1672740e+01   4.3679028e+03
 1.1677420e+01   4.3426685e+03
 1.1682100e+01   4.3589020e+03
 1.1686780e+01   4.3485209e+03
 1.1691460e+01   4.3415564e+03
 1.1696140e+01   4.3566023e+03
 1.1700820e+01   4.3485822e+03
 1.1705500e+01   4.3425645e+03
 1.1710180e+01   4.3416246e+03
 1.1714860e+01   4.3329037e+03
 1.1719540e+01   4.3392798e+03
 1.1724220e+01   4.3501155e+03
 1.1728900e+01   4.3301944e+03
 1.1733580e+01   4.3460499e+03
 1.1738260e+01   4.3372248e+03
 1.1742940e+01   4.3416259e+03
 1.1747620e+01   4.3292843e+03
 1.1752300e+01   4.3292740e+03
 1.1756980e+01   4.3349422e+03
 1.1761660e+01   4.3404288e+03
 1.1766340e+01   4.3465428e+03
 1.1771020e+01   4.3360820e+03
 1.1775700e+01   4.3388808e+03
 1.1780380e+01   4.3395372e+03
 1.1785060e+01   4.3385802e+03
 1.1789740e+01   4.3375349e+03
 1.1794420e+01   4.3471424e+03
 1.1799100e+01   4.3410551e+03
 1.1803780e+01   4.3446848e+03
 1.1808460e+01   4.3421512e+03
 1.1813140e+01   4.3418235e+03
 1.1817820e+01   4.3625841e+03
 1.1822500e+01   4.3575337e+03
 1.1827180e+01   4.3682522e+03
 1.1831860e+01   4.3737678e+03
 1.1836540e+01   4.3717472e+03
 1.1841220e+01   4.3692298e+03
 1.1845900e+01   4.3838734e+03
 1.1850580e+01   4.3901187e+03
 1.1855260e+01   4.4051795e+03
 1.1859940e+01   4.4207877e+03
 1.1864620e+01   4.4449284e+03
 1.1869300e+01   4.4716842e+03
 1.1873980e+01   4.5195320e+03
 1.1878660e+01   4.5764582e+03
 1.1883340e+01   4.6552252e+03
 1.1888020e+01   4.7486592e+03
 1.1892700e+01   4.8648513e+03
 1.1897380e+01   4.9603243e+03
 1.1902060e+01   5.0327479e+03
 1.1906740e+01   5.0432739e+03
 1.1911420e+01   4.9748121e+03
 1.1916100e+01   4.9431434e+03
 1.1920780e+01   4.8247349e+03
 1.1925460e+01   4.7407455e+03
 1.1930140e+01   4.6657080e+03
 1.1934820e+01   4.6022676e+03
 1.1939500e+01   4.5798802e+03
 1.1944180e+01   4.5526778e+03
 1.1948860e+01   4.5396185e+03
 1.1953540e+01   4.5353744e+03
 1.1958220e+01   4.5388529e+03
 1.1962900e+01   4.5386970e+03
 1.1967580e+01   4.5512835e+03
 1.1972260e+01   4.5391736e+03
 1.1976940e+01   4.5557740e+03
 1.1981620e+01   4.5562766e+03
 1.1986300e+01   4.5457684e+03
 1.1990980e+01   4.5561801e+03
 1.1995660e+01   4.5483897e+03
 1.2000340e+01   4.5497993e+03
 1.2005020e+01   4.5491821e+03
 1.2009700e+01   4.5382570e+03
 1.2014380e+01   4.5352363e+03
 1.2019060e+01   4.5369507e+03
 1.2023740e+01   4.5093818e+03
 1.2028420e+01   4.5220230e+03
 1.2033100e+01   4.5112997e+03
 1.2037780e+01   4.5000575e+03
 1.2042460e+01   4.4914452e+03
 1.2047140e+01   4.4696762e+03
 1.2051820e+01   4.4747907e+03
 1.2056500e+01   4.4708535e+03
 1.2061180e+01   4.4657162e+03
 1.2065860e+01   4.4533659e+03
 1.2070540e+01   4.4436133e+03
 1.2075220e+01   4.4330310e+03
 1.2079900e+01   4.4346601e+03
 1.2084580e+01   4.4264171e+03
 1.2089260e+01   4.4239549e+03
 1.2093940e+01   4.4106626e+03
 1.2098620e+01   4.4136269e+03
 1.2103300e+01   4.4038974e+03
 1.2107980e+01   4.3868115e+03
 1.2112660e+01   4.3880939e+03
 1.2117340e+01   4.3614544e+03
 1.2122020e+01   4.3630469e+03
 1.2126700e+01   4.3496775e+03
 1.2131380e+01   4.3313132e+03
 1.2136060e+01   4.3192716e+03
 1.2140740e+01   4.3112078e+03
 1.2145420e+01   4.2944589e+03
 1.2150100e+01   4.2772366e+03
 1.2154780e+01   4.2593936e+03
 1.2159460e+01   4.2507313e+03
 1.2164140e+01   4.2371995e+03
 1.2168820e+01   4.2181536e+03
 1.2173500e+01   4.2147375e+03
 1.2178180e+01   4.1954782e+03
 1.2182860e+01   4.1830578e+03
 1.2187540e+01   4.1781441e+03
 1.2192220e+01   4.1702615e+03
 1.2196900e+01   4.1576119e+03
 1.2201580e+01   4.1499171e+03
 1.2206260e+01   4.1369306e+03
 1.2210940e+01   4.1502270e+03
 1.2215620e+01   4.1312398e+03
 1.2220300e+01   4.1274725e+03
 1.2224980e+01   4.1254427e+03
 1.2229660e+01   4.1169527e+03
 1.2234340e+01   4.1152444e+03
 1.2239020e+01   4.1029022e+03
 1.2243700e+01   4.1060286e+03
 1.2248380e+01   4.1009426e+03
 1.2253060e+01   4.1089797e+03
 1.2257740e+01   4.0999373e+03
 1.2262420e+01   4.1065843e+03
 1.2267100e+01   4.0974768e+03
 1.2271780e+01   4.1015847e+03
 1.2276460e+01   4.0930596e+03
 1.2281140e+01   4.0833154e+03
 1.2285820e+01   4.0863532e+03
 1.2290500e+01   4.0795944e+03
 1.2295180e+01   4.0842942e+03
 1.2299860e+01   4.0870285e+03
 1.2304540e+01   4.0858394e+03
 1.2309220e+01   4.0992713e+03
 1.2313900e+01   4.0932376e+03
 1.2318580e+01   4.0834996e+03
 1.2323260e+01   4.0902194e+03
 1.2327940e+01   4.0834767e+03
 1.2332620e+01   4.0927042e+03
 1.2337300e+01   4.0825305e+03
 1.2341980e+01   4.0973838e+03
 1.2346660e+01   4.0937960e+03
 1.2351340e+01   4.0884843e+03
 1.2356020e+01   4.1033637e+03
 1.2360700e+01   4.1000298e+03
 1.2365380e+01   4.1063804e+03
 1.2370060e+01   4.1083565e+03
 1.2374740e+01   4.1129859e+03
 1.2379420e+01   4.1141654e+03
 1.2384100e+01   4.1272201e+03
 1.2388780e+01   4.1179963e+03
 1.2393460e+01   4.1342737e+03
 1.2398140e+01   4.1281447e+03
 1.2402820e+01   4.1226184e+03
 1.2407500e+01   4.1379053e+03
 1.2412180e+01   4.1280035e+03
 1.2416860e+01   4.1348196e+03
 1.2421540e+01   4.1369872e+03
 1.2426220e+01   4.1402979e+03
 1.2430900e+01   4.1438576e+03
 1.2435580e+01   4.1389699e+03
 1.2440260e+01   4.1486983e+03
 1.2444940e+01   4.1371412e+03
 1.2449620e+01   4.1444093e+03
 1.2454300e+01   4.1411395e+03
 1.2458980e+01   4.1461659e+03
 1.2463660e+01   4.1320156e+03
 1.2468340e+01   4.1457944e+03
 1.2473020e+01   4.1528794e+03
 1.2477700e+01   4.1528777e+03
 1.2482380e+01   4.1496906e+03
 1.2487060e+01   4.1426681e+03
 1.2491740e+01   4.1476202e+03
 1.2496420e+01   4.1459235e+03
 1.2501100e+01   4.1356626e+03
 1.2505780e+01   4.1395155e+03
 1.2510460e+01   4.1353664e+03
 1.2515140e+01   4.1318921e+03
 1.2519820e+01   4.1272325e+03
 1.2524500e+01   4.1256101e+03
 1.2529180e+01   4.1251707e+03
 1.2533860e+01   4.1153377e+03
 1.2538540e+01   4.1135438e+03
 1.2543220e+01   4.1154475e+03
 1.2547900e+01   4.1173650e+03
 1.2552580e+01   4.1170023e+03
 1.2557260e+01   4.1118535e+03
 1.2561940e+01   4.1182380e+03
 1.2566620e+01   4.1194054e+03
 1.2571300e+01   4.1314931e+03
 1.2575980e+01   4.1293723e+03
 1.2580660e+01   4.1375200e+03
 1.2585340e+01   4.1299779e+03
 1.2590020e+01   4.1485330e+03
 1.2594700e+01   4.1476401e+03
 1.2599380e+01   4.1503036e+03
 1.2604060e+01   4.1550740e+03
 1.2608740e+01   4.1604873e+03
 1.2613420e+01   4.1677151e+03
 1.2618100e+01   4.1686956e+03
 1.2622780e+01   4.1769139e+03
 1.2627460e+01   4.1791322e+03
 1.2632140e+01   4.1912526e+03
 1.2636820e+01   4.1898319e+03
 1.2641500e+01   4.1949545e+03
 1.2646180e+01   4.2020054e+03
 1.2650860e+01   4.2083822e+03
 1.2655540e+01   4.2059625e+03
 1.2660220e+01   4.2147896e+03
 1.2664900e+01   4.2141917e+03
 1.2669580e+01   4.2215046e+03
 1.2674260e+01   4.2219511e+03
 1.2678940e+01   4.2283852e+03
 1.2683620e+01   4.2246881e+03
 1.2688300e+01   4.2297591e+03
 1.2692980e+01   4.2376695e+03
 1.2697660e+01   4.2303624e+03
