MA2b-00006.tif Azm= 0.00
2-Theta Angle (Degrees)
Intensity
       2500
 1.0023400e+00   7.9678715e+03
 1.0070200e+00   7.9210604e+03
 1.0117000e+00   7.8880350e+03
 1.0163800e+00   7.8620613e+03
 1.0210600e+00   7.8203220e+03
 1.0257400e+00   7.7811444e+03
 1.0304199e+00   7.7775666e+03
 1.0351000e+00   7.7189377e+03
 1.0397800e+00   7.7356874e+03
 1.0444601e+00   7.6914123e+03
 1.0491400e+00   7.6169926e+03
 1.0538200e+00   7.6938230e+03
 1.0585001e+00   7.5977740e+03
 1.0631800e+00   7.6036410e+03
 1.0678600e+00   7.5883590e+03
 1.0725400e+00   7.5691172e+03
 1.0772200e+00   7.5181509e+03
 1.0819000e+00   7.5389386e+03
 1.0865800e+00   7.4670672e+03
 1.0912600e+00   7.5076301e+03
 1.0959400e+00   7.4609387e+03
 1.1006200e+00   7.4587342e+03
 1.1052999e+00   7.4520582e+03
 1.1099800e+00   7.3988090e+03
 1.1146600e+00   7.4102623e+03
 1.1193399e+00   7.3983467e+03
 1.1240200e+00   7.3614104e+03
 1.1287000e+00   7.3382591e+03
 1.1333801e+00   7.3763585e+03
 1.1380600e+00   7.2884206e+03
 1.1427400e+00   7.3261778e+03
 1.1474200e+00   7.2790672e+03
 1.1521000e+00   7.2876143e+03
 1.1567800e+00   7.2663790e+03
 1.1614600e+00   7.2531171e+03
 1.1661400e+00   7.1964156e+03
 1.1708200e+00   7.2193272e+03
 1.1755000e+00   7.2170503e+03
 1.1801800e+00   7.1984205e+03
 1.1848600e+00   7.2128165e+03
 1.1895400e+00   7.1832828e+03
 1.1942199e+00   7.1685746e+03
 1.1989000e+00   7.1574219e+03
 1.2035800e+00   7.1535626e+03
 1.2082601e+00   7.1437472e+03
 1.2129400e+00   7.1396140e+03
 1.2176200e+00   7.1615521e+03
 1.2223001e+00   7.1436798e+03
 1.2269800e+00   7.1447784e+03
 1.2316600e+00   7.0943162e+03
 1.2363400e+00   7.1145979e+03
 1.2410200e+00   7.1253574e+03
 1.2457000e+00   7.1236251e+03
 1.2503800e+00   7.1051597e+03
 1.2550600e+00   7.1169203e+03
 1.2597400e+00   7.1188470e+03
 1.2644200e+00   7.1221914e+03
 1.2691000e+00   7.0891521e+03
 1.2737800e+00   7.1129312e+03
 1.2784600e+00   7.1025493e+03
 1.2831399e+00   7.1025046e+03
 1.2878200e+00   7.1219824e+03
 1.2925000e+00   7.0791074e+03
 1.2971801e+00   7.1208789e+03
 1.3018600e+00   7.1294979e+03
 1.3065400e+00   7.1263872e+03
 1.3112200e+00   7.1176926e+03
 1.3159000e+00   7.1223740e+03
 1.3205800e+00   7.1572992e+03
 1.3252600e+00   7.1391832e+03
 1.3299400e+00   7.1266428e+03
 1.3346200e+00   7.1714313e+03
 1.3393000e+00   7.1688227e+03
 1.3439800e+00   7.1395256e+03
 1.3486600e+00   7.1682179e+03
 1.3533400e+00   7.1688141e+03
 1.3580199e+00   7.1775809e+03
 1.3627000e+00   7.1953039e+03
 1.3673800e+00   7.2010036e+03
 1.3720599e+00   7.2096007e+03
 1.3767400e+00   7.2300908e+03
 1.3814200e+00   7.2149829e+03
 1.3861001e+00   7.2313645e+03
 1.3907800e+00   7.2269284e+03
 1.3954600e+00   7.2780531e+03
 1.4001400e+00   7.2593579e+03
 1.4048200e+00   7.3185523e+03
 1.4095000e+00   7.3164479e+03
 1.4141800e+00   7.3345774e+03
 1.4188600e+00   7.3520451e+03
 1.4235400e+00   7.3522622e+03
 1.4282200e+00   7.3705987e+03
 1.4329000e+00   7.4143640e+03
 1.4375800e+00   7.4015625e+03
 1.4422600e+00   7.4218069e+03
 1.4469399e+00   7.4551713e+03
 1.4516200e+00   7.4873295e+03
 1.4563000e+00   7.5089285e+03
 1.4609801e+00   7.5301424e+03
 1.4656600e+00   7.5625568e+03
 1.4703400e+00   7.5784446e+03
 1.4750201e+00   7.6252809e+03
 1.4797000e+00   7.6504458e+03
 1.4843800e+00   7.6641035e+03
 1.4890600e+00   7.6688452e+03
 1.4937400e+00   7.6832929e+03
 1.4984200e+00   7.6944107e+03
 1.5031000e+00   7.7318038e+03
 1.5077800e+00   7.7309795e+03
 1.5124600e+00   7.7639528e+03
 1.5171400e+00   7.7742229e+03
 1.5218199e+00   7.7908590e+03
 1.5265000e+00   7.7675985e+03
 1.5311800e+00   7.7902969e+03
 1.5358599e+00   7.7567705e+03
 1.5405400e+00   7.7784412e+03
 1.5452200e+00   7.7442924e+03
 1.5499001e+00   7.7950165e+03
 1.5545800e+00   7.7290227e+03
 1.5592600e+00   7.7503773e+03
 1.5639400e+00   7.7373933e+03
 1.5686200e+00   7.7647905e+03
 1.5733000e+00   7.7071628e+03
 1.5779800e+00   7.7316845e+03
 1.5826600e+00   7.7154915e+03
 1.5873400e+00   7.6991068e+03
 1.5920200e+00   7.6904579e+03
 1.5967000e+00   7.6705057e+03
 1.6013800e+00   7.6887593e+03
 1.6060600e+00   7.7102691e+03
 1.6107399e+00   7.6796860e+03
 1.6154200e+00   7.6894528e+03
 1.6201000e+00   7.6885942e+03
 1.6247801e+00   7.6799128e+03
 1.6294600e+00   7.6931761e+03
 1.6341400e+00   7.6871785e+03
 1.6388201e+00   7.6887170e+03
 1.6435000e+00   7.7080844e+03
 1.6481800e+00   7.6588388e+03
 1.6528600e+00   7.6905834e+03
 1.6575400e+00   7.7009582e+03
 1.6622200e+00   7.7139570e+03
 1.6669000e+00   7.6807983e+03
 1.6715800e+00   7.7150577e+03
 1.6762600e+00   7.6562362e+03
 1.6809400e+00   7.7125476e+03
 1.6856200e+00   7.7002335e+03
 1.6903000e+00   7.7107154e+03
 1.6949800e+00   7.7585874e+03
 1.6996599e+00   7.7042252e+03
 1.7043400e+00   7.7548498e+03
 1.7090200e+00   7.7223315e+03
 1.7137001e+00   7.7565854e+03
 1.7183800e+00   7.7373429e+03
 1.7230600e+00   7.7568783e+03
 1.7277400e+00   7.7247709e+03
 1.7324200e+00   7.7737715e+03
 1.7371000e+00   7.7505676e+03
 1.7417800e+00   7.7660974e+03
 1.7464600e+00   7.7535548e+03
 1.7511400e+00   7.7989769e+03
 1.7558200e+00   7.7770632e+03
 1.7605000e+00   7.7999721e+03
 1.7651800e+00   7.7718547e+03
 1.7698600e+00   7.8345886e+03
 1.7745399e+00   7.7960706e+03
 1.7792200e+00   7.8334422e+03
 1.7839000e+00   7.8404328e+03
 1.7885799e+00   7.8543719e+03
 1.7932600e+00   7.8444169e+03
 1.7979400e+00   7.8765194e+03
 1.8026201e+00   7.8688594e+03
 1.8073000e+00   7.8985709e+03
 1.8119800e+00   7.9034183e+03
 1.8166600e+00   7.9103780e+03
 1.8213400e+00   7.9237439e+03
 1.8260200e+00   7.9579219e+03
 1.8307000e+00   7.9714908e+03
 1.8353800e+00   7.9969661e+03
 1.8400600e+00   8.0120899e+03
 1.8447400e+00   8.0274135e+03
 1.8494200e+00   8.0683628e+03
 1.8541000e+00   8.0782507e+03
 1.8587800e+00   8.0908313e+03
 1.8634599e+00   8.1509343e+03
 1.8681400e+00   8.1287291e+03
 1.8728200e+00   8.1608966e+03
 1.8775001e+00   8.1694010e+03
 1.8821800e+00   8.2088771e+03
 1.8868600e+00   8.2122048e+03
 1.8915401e+00   8.2125437e+03
 1.8962200e+00   8.2557050e+03
 1.9009000e+00   8.2761039e+03
 1.9055800e+00   8.3043083e+03
 1.9102600e+00   8.3082998e+03
 1.9149400e+00   8.3177339e+03
 1.9196200e+00   8.3700858e+03
 1.9243000e+00   8.3958715e+03
 1.9289800e+00   8.4097784e+03
 1.9336600e+00   8.4843196e+03
 1.9383399e+00   8.4692905e+03
 1.9430200e+00   8.4908145e+03
 1.9477000e+00   8.5027428e+03
 1.9523799e+00   8.5550298e+03
 1.9570600e+00   8.5811243e+03
 1.9617400e+00   8.6343348e+03
 1.9664201e+00   8.6399126e+03
 1.9711000e+00   8.8027581e+03
 1.9757800e+00   8.6973034e+03
 1.9804600e+00   8.7661346e+03
 1.9851400e+00   8.7396064e+03
 1.9898200e+00   8.7785515e+03
 1.9945000e+00   8.7748391e+03
 1.9991800e+00   8.7840576e+03
 2.0038600e+00   8.8435422e+03
 2.0085399e+00   8.8443753e+03
 2.0132201e+00   8.8993248e+03
 2.0179000e+00   8.9062918e+03
 2.0225799e+00   8.9496075e+03
 2.0272601e+00   8.9521468e+03
 2.0319400e+00   9.0090849e+03
 2.0366199e+00   9.0381970e+03
 2.0413001e+00   9.0717126e+03
 2.0459800e+00   9.1104656e+03
 2.0506599e+00   9.1424143e+03
 2.0553401e+00   9.1705722e+03
 2.0600200e+00   9.2206469e+03
 2.0646999e+00   9.2733518e+03
 2.0693800e+00   9.3279360e+03
 2.0740600e+00   9.4119154e+03
 2.0787399e+00   9.5212025e+03
 2.0834200e+00   9.6578397e+03
 2.0881000e+00   9.7806575e+03
 2.0927801e+00   1.0000903e+04
 2.0974600e+00   1.0303421e+04
 2.1021399e+00   1.0705410e+04
 2.1068201e+00   1.1231421e+04
 2.1115000e+00   1.2126554e+04
 2.1161799e+00   1.3334160e+04
 2.1208601e+00   1.5071734e+04
 2.1255400e+00   1.7367785e+04
 2.1302199e+00   2.0348702e+04
 2.1349001e+00   2.3491858e+04
 2.1395800e+00   2.6622179e+04
 2.1442599e+00   2.9178776e+04
 2.1489401e+00   3.0681343e+04
 2.1536200e+00   3.0928386e+04
 2.1582999e+00   3.0017592e+04
 2.1629801e+00   2.8324007e+04
 2.1676600e+00   2.6127694e+04
 2.1723399e+00   2.3882233e+04
 2.1770201e+00   2.1821408e+04
 2.1817000e+00   1.9938518e+04
 2.1863799e+00   1.8361337e+04
 2.1910601e+00   1.6983275e+04
 2.1957400e+00   1.5860114e+04
 2.2004199e+00   1.4838650e+04
 2.2051001e+00   1.4062577e+04
 2.2097800e+00   1.3374260e+04
 2.2144599e+00   1.2901229e+04
 2.2191401e+00   1.2486021e+04
 2.2238200e+00   1.2226890e+04
 2.2284999e+00   1.2009064e+04
 2.2331800e+00   1.1851634e+04
 2.2378600e+00   1.1693963e+04
 2.2425399e+00   1.1548237e+04
 2.2472200e+00   1.1387535e+04
 2.2519000e+00   1.1242998e+04
 2.2565801e+00   1.1044128e+04
 2.2612600e+00   1.0899341e+04
 2.2659400e+00   1.0753723e+04
 2.2706201e+00   1.0634785e+04
 2.2753000e+00   1.0582682e+04
 2.2799799e+00   1.0510152e+04
 2.2846601e+00   1.0445173e+04
 2.2893400e+00   1.0472437e+04
 2.2940199e+00   1.0446373e+04
 2.2987001e+00   1.0460656e+04
 2.3033800e+00   1.0453513e+04
 2.3080599e+00   1.0472669e+04
 2.3127401e+00   1.0469834e+04
 2.3174200e+00   1.0524527e+04
 2.3220999e+00   1.0528573e+04
 2.3267801e+00   1.0578852e+04
 2.3314600e+00   1.0584636e+04
 2.3361399e+00   1.0609069e+04
 2.3408201e+00   1.0612113e+04
 2.3455000e+00   1.0632439e+04
 2.3501799e+00   1.0652410e+04
 2.3548601e+00   1.0685551e+04
 2.3595400e+00   1.0721363e+04
 2.3642199e+00   1.0748680e+04
 2.3689001e+00   1.0770859e+04
 2.3735800e+00   1.0834107e+04
 2.3782599e+00   1.0857331e+04
 2.3829401e+00   1.0882137e+04
 2.3876200e+00   1.0934862e+04
 2.3922999e+00   1.0951583e+04
 2.3969800e+00   1.1003506e+04
 2.4016600e+00   1.1016638e+04
 2.4063399e+00   1.1067895e+04
 2.4110200e+00   1.1120011e+04
 2.4157000e+00   1.1116514e+04
 2.4203801e+00   1.1157125e+04
 2.4250600e+00   1.1195975e+04
 2.4297400e+00   1.1245133e+04
 2.4344201e+00   1.1267433e+04
 2.4391000e+00   1.1307162e+04
 2.4437799e+00   1.1361837e+04
 2.4484601e+00   1.1398923e+04
 2.4531400e+00   1.1416160e+04
 2.4578199e+00   1.1440177e+04
 2.4625001e+00   1.1488928e+04
 2.4671800e+00   1.1515986e+04
 2.4718599e+00   1.1562584e+04
 2.4765401e+00   1.1599820e+04
 2.4812200e+00   1.1651110e+04
 2.4858999e+00   1.1685139e+04
 2.4905801e+00   1.1687356e+04
 2.4952600e+00   1.1759257e+04
 2.4999399e+00   1.1789139e+04
 2.5046201e+00   1.1822648e+04
 2.5093000e+00   1.1855104e+04
 2.5139799e+00   1.1888683e+04
 2.5186601e+00   1.1940207e+04
 2.5233400e+00   1.1957243e+04
 2.5280199e+00   1.2008437e+04
 2.5327001e+00   1.2039573e+04
 2.5373800e+00   1.2058633e+04
 2.5420599e+00   1.2111203e+04
 2.5467401e+00   1.2150154e+04
 2.5514200e+00   1.2162258e+04
 2.5560999e+00   1.2217791e+04
 2.5607800e+00   1.2231942e+04
 2.5654600e+00   1.2265638e+04
 2.5701399e+00   1.2308445e+04
 2.5748200e+00   1.2328219e+04
 2.5795000e+00   1.2333712e+04
 2.5841801e+00   1.2384897e+04
 2.5888600e+00   1.2426798e+04
 2.5935400e+00   1.2433926e+04
 2.5982201e+00   1.2473185e+04
 2.6029000e+00   1.2478483e+04
 2.6075799e+00   1.2515322e+04
 2.6122601e+00   1.2517594e+04
 2.6169400e+00   1.2551166e+04
 2.6216199e+00   1.2590839e+04
 2.6263001e+00   1.2597957e+04
 2.6309800e+00   1.2616916e+04
 2.6356599e+00   1.2657959e+04
 2.6403401e+00   1.2679809e+04
 2.6450200e+00   1.2683325e+04
 2.6496999e+00   1.2725528e+04
 2.6543801e+00   1.2682241e+04
 2.6590600e+00   1.2754132e+04
 2.6637399e+00   1.2744326e+04
 2.6684201e+00   1.2768247e+04
 2.6731000e+00   1.2819164e+04
 2.6777799e+00   1.2841322e+04
 2.6824601e+00   1.2797823e+04
 2.6871400e+00   1.2900478e+04
 2.6918199e+00   1.2853590e+04
 2.6965001e+00   1.2910507e+04
 2.7011800e+00   1.2930684e+04
 2.7058599e+00   1.2903166e+04
 2.7105401e+00   1.2938367e+04
 2.7152200e+00   1.2914575e+04
 2.7198999e+00   1.2915602e+04
 2.7245800e+00   1.2950889e+04
 2.7292600e+00   1.2911965e+04
 2.7339399e+00   1.2926788e+04
 2.7386200e+00   1.2904453e+04
 2.7433000e+00   1.2870727e+04
 2.7479801e+00   1.2876106e+04
 2.7526600e+00   1.2873380e+04
 2.7573400e+00   1.2862567e+04
 2.7620201e+00   1.2876706e+04
 2.7667000e+00   1.2870532e+04
 2.7713799e+00   1.2825241e+04
 2.7760601e+00   1.2858622e+04
 2.7807400e+00   1.2822907e+04
 2.7854199e+00   1.2801564e+04
 2.7901001e+00   1.2801189e+04
 2.7947800e+00   1.2805031e+04
 2.7994599e+00   1.2775342e+04
 2.8041401e+00   1.2788379e+04
 2.8088200e+00   1.2764546e+04
 2.8134999e+00   1.2758299e+04
 2.8181801e+00   1.2723032e+04
 2.8228600e+00   1.2739361e+04
 2.8275399e+00   1.2709877e+04
 2.8322201e+00   1.2699571e+04
 2.8369000e+00   1.2674162e+04
 2.8415799e+00   1.2677334e+04
 2.8462601e+00   1.2662177e+04
 2.8509400e+00   1.2669705e+04
 2.8556199e+00   1.2621195e+04
 2.8603001e+00   1.2623373e+04
 2.8649800e+00   1.2591276e+04
 2.8696599e+00   1.2573804e+04
 2.8743401e+00   1.2559929e+04
 2.8790200e+00   1.2547886e+04
 2.8836999e+00   1.2506531e+04
 2.8883801e+00   1.2518711e+04
 2.8930600e+00   1.2504031e+04
 2.8977399e+00   1.2493367e+04
 2.9024200e+00   1.2473456e+04
 2.9071000e+00   1.2446125e+04
 2.9117801e+00   1.2414393e+04
 2.9164600e+00   1.2380158e+04
 2.9211400e+00   1.2387423e+04
 2.9258201e+00   1.2344277e+04
 2.9305000e+00   1.2313969e+04
 2.9351799e+00   1.2322165e+04
 2.9398601e+00   1.2277682e+04
 2.9445400e+00   1.2296675e+04
 2.9492199e+00   1.2257010e+04
 2.9539001e+00   1.2271163e+04
 2.9585800e+00   1.2234358e+04
 2.9632599e+00   1.2173358e+04
 2.9679401e+00   1.2163161e+04
 2.9726200e+00   1.2155953e+04
 2.9772999e+00   1.2142413e+04
 2.9819801e+00   1.2121484e+04
 2.9866600e+00   1.2075483e+04
 2.9913399e+00   1.2016920e+04
 2.9960201e+00   1.2016886e+04
 3.0007000e+00   1.2003095e+04
 3.0053799e+00   1.1991671e+04
 3.0100601e+00   1.1943053e+04
 3.0147400e+00   1.1922798e+04
 3.0194199e+00   1.1897551e+04
 3.0241001e+00   1.1868167e+04
 3.0287800e+00   1.1852143e+04
 3.0334599e+00   1.1839053e+04
 3.0381401e+00   1.1799754e+04
 3.0428200e+00   1.1767098e+04
 3.0474999e+00   1.1753025e+04
 3.0521801e+00   1.1714254e+04
 3.0568600e+00   1.1679646e+04
 3.0615399e+00   1.1645806e+04
 3.0662200e+00   1.1611894e+04
 3.0709000e+00   1.1603644e+04
 3.0755799e+00   1.1547520e+04
 3.0802600e+00   1.1561093e+04
 3.0849400e+00   1.1508652e+04
 3.0896201e+00   1.1510492e+04
 3.0943000e+00   1.1472652e+04
 3.0989799e+00   1.1464291e+04
 3.1036601e+00   1.1413560e+04
 3.1083400e+00   1.1438318e+04
 3.1130199e+00   1.1383219e+04
 3.1177001e+00   1.1378283e+04
 3.1223800e+00   1.1359751e+04
 3.1270599e+00   1.1323588e+04
 3.1317401e+00   1.1323381e+04
 3.1364200e+00   1.1314396e+04
 3.1410999e+00   1.1276357e+04
 3.1457801e+00   1.1271908e+04
 3.1504600e+00   1.1228138e+04
 3.1551399e+00   1.1223416e+04
 3.1598201e+00   1.1209336e+04
 3.1645000e+00   1.1184630e+04
 3.1691799e+00   1.1162587e+04
 3.1738601e+00   1.1152346e+04
 3.1785400e+00   1.1120558e+04
 3.1832199e+00   1.1116233e+04
 3.1879001e+00   1.1129015e+04
 3.1925800e+00   1.1070811e+04
 3.1972599e+00   1.1097237e+04
 3.2019401e+00   1.1046782e+04
 3.2066200e+00   1.1075922e+04
 3.2112999e+00   1.1045952e+04
 3.2159801e+00   1.1013315e+04
 3.2206600e+00   1.1018916e+04
 3.2253399e+00   1.1021149e+04
 3.2300200e+00   1.0943693e+04
 3.2347000e+00   1.0969577e+04
 3.2393799e+00   1.0959468e+04
 3.2440600e+00   1.0929622e+04
 3.2487400e+00   1.0917293e+04
 3.2534201e+00   1.0901015e+04
 3.2581000e+00   1.0900219e+04
 3.2627800e+00   1.0900081e+04
 3.2674601e+00   1.0860544e+04
 3.2721400e+00   1.0866052e+04
 3.2768199e+00   1.0883074e+04
 3.2815001e+00   1.0839728e+04
 3.2861800e+00   1.0866372e+04
 3.2908599e+00   1.0833993e+04
 3.2955401e+00   1.0852866e+04
 3.3002200e+00   1.0830341e+04
 3.3048999e+00   1.0830877e+04
 3.3095801e+00   1.0822829e+04
 3.3142600e+00   1.0854684e+04
 3.3189399e+00   1.0781050e+04
 3.3236201e+00   1.0841007e+04
 3.3283000e+00   1.0798195e+04
 3.3329799e+00   1.0797652e+04
 3.3376601e+00   1.0785918e+04
 3.3423400e+00   1.0791360e+04
 3.3470199e+00   1.0785790e+04
 3.3517001e+00   1.0812485e+04
 3.3563800e+00   1.0776526e+04
 3.3610599e+00   1.0777613e+04
 3.3657401e+00   1.0804831e+04
 3.3704200e+00   1.0789095e+04
 3.3750999e+00   1.0790876e+04
 3.3797801e+00   1.0804386e+04
 3.3844600e+00   1.0791822e+04
 3.3891399e+00   1.0802243e+04
 3.3938200e+00   1.0784201e+04
 3.3985000e+00   1.0800027e+04
 3.4031799e+00   1.0812260e+04
 3.4078600e+00   1.0776283e+04
 3.4125400e+00   1.0826474e+04
 3.4172201e+00   1.0823126e+04
 3.4219000e+00   1.0822483e+04
 3.4265800e+00   1.0845676e+04
 3.4312601e+00   1.0809094e+04
 3.4359400e+00   1.0860716e+04
 3.4406199e+00   1.0828131e+04
 3.4453001e+00   1.0836282e+04
 3.4499800e+00   1.0866054e+04
 3.4546599e+00   1.0848033e+04
 3.4593401e+00   1.0845890e+04
 3.4640200e+00   1.0855279e+04
 3.4686999e+00   1.0878681e+04
 3.4733801e+00   1.0828707e+04
 3.4780600e+00   1.0904594e+04
 3.4827399e+00   1.0879621e+04
 3.4874201e+00   1.0886444e+04
 3.4921000e+00   1.0906901e+04
 3.4967799e+00   1.0870918e+04
 3.5014601e+00   1.0883851e+04
 3.5061400e+00   1.0923804e+04
 3.5108199e+00   1.0872513e+04
 3.5155001e+00   1.0909834e+04
 3.5201800e+00   1.0899972e+04
 3.5248599e+00   1.0882687e+04
 3.5295401e+00   1.0936181e+04
 3.5342200e+00   1.0880497e+04
 3.5388999e+00   1.0939270e+04
 3.5435801e+00   1.0937527e+04
 3.5482600e+00   1.0909860e+04
 3.5529399e+00   1.0922994e+04
 3.5576200e+00   1.0963435e+04
 3.5623000e+00   1.0921889e+04
 3.5669799e+00   1.1002600e+04
 3.5716600e+00   1.0898392e+04
 3.5763400e+00   1.1010045e+04
 3.5810201e+00   1.0966401e+04
 3.5857000e+00   1.0990689e+04
 3.5903800e+00   1.0950116e+04
 3.5950601e+00   1.1066851e+04
 3.5997400e+00   1.0936468e+04
 3.6044199e+00   1.1073677e+04
 3.6091001e+00   1.1010966e+04
 3.6137800e+00   1.1007968e+04
 3.6184599e+00   1.1077747e+04
 3.6231401e+00   1.1057221e+04
 3.6278200e+00   1.1033131e+04
 3.6324999e+00   1.1128255e+04
 3.6371801e+00   1.1034527e+04
 3.6418600e+00   1.1105265e+04
 3.6465399e+00   1.1150547e+04
 3.6512201e+00   1.1074216e+04
 3.6559000e+00   1.1210779e+04
 3.6605799e+00   1.1123866e+04
 3.6652601e+00   1.1195260e+04
 3.6699400e+00   1.1195491e+04
 3.6746199e+00   1.1215485e+04
 3.6793001e+00   1.1171141e+04
 3.6839800e+00   1.1451604e+04
 3.6886599e+00   1.1125837e+04
 3.6933401e+00   1.1434554e+04
 3.6980200e+00   1.1187085e+04
 3.7026999e+00   1.1450537e+04
 3.7073801e+00   1.1333483e+04
 3.7120600e+00   1.1524404e+04
 3.7167399e+00   1.1307587e+04
 3.7214200e+00   1.1717005e+04
 3.7261000e+00   1.1403635e+04
 3.7307799e+00   1.1601700e+04
 3.7354600e+00   1.1593726e+04
 3.7401400e+00   1.1628609e+04
 3.7448201e+00   1.1797999e+04
 3.7495000e+00   1.1706687e+04
 3.7541800e+00   1.1795100e+04
 3.7588601e+00   1.1735475e+04
 3.7635400e+00   1.1888267e+04
 3.7682199e+00   1.1902929e+04
 3.7729001e+00   1.2176845e+04
 3.7775800e+00   1.1857804e+04
 3.7822599e+00   1.2309476e+04
 3.7869401e+00   1.2008712e+04
 3.7916200e+00   1.2373639e+04
 3.7962999e+00   1.2305181e+04
 3.8009801e+00   1.2678219e+04
 3.8056600e+00   1.2205529e+04
 3.8103399e+00   1.2974660e+04
 3.8150201e+00   1.2218459e+04
 3.8197000e+00   1.3256502e+04
 3.8243799e+00   1.2775109e+04
 3.8290601e+00   1.3378195e+04
 3.8337400e+00   1.2857600e+04
 3.8384199e+00   1.3816236e+04
 3.8431001e+00   1.3124549e+04
 3.8477800e+00   1.3997119e+04
 3.8524599e+00   1.3743203e+04
 3.8571401e+00   1.4361737e+04
 3.8618200e+00   1.4242458e+04
 3.8664999e+00   1.4361182e+04
 3.8711801e+00   1.4627335e+04
 3.8758600e+00   1.5190422e+04
 3.8805399e+00   1.5503255e+04
 3.8852201e+00   1.6364911e+04
 3.8899000e+00   1.6297654e+04
 3.8945799e+00   1.7216806e+04
 3.8992600e+00   1.7695533e+04
 3.9039400e+00   1.9526498e+04
 3.9086201e+00   1.9717999e+04
 3.9133000e+00   2.6404411e+04
 3.9179800e+00   2.5194666e+04
 3.9226601e+00   3.6787436e+04
 3.9273400e+00   3.9192101e+04
 3.9320199e+00   6.1436820e+04
 3.9367001e+00   5.9200739e+04
 3.9413800e+00   8.9345874e+04
 3.9460599e+00   7.9461102e+04
 3.9507401e+00   9.4156173e+04
 3.9554200e+00   8.3843166e+04
 3.9600999e+00   1.0162752e+05
 3.9647801e+00   9.7561917e+04
 3.9694600e+00   1.0277531e+05
 3.9741399e+00   1.2284650e+05
 3.9788201e+00   9.5777504e+04
 3.9835000e+00   1.0462827e+05
 3.9881799e+00   5.9682151e+04
 3.9928601e+00   8.9645068e+04
 3.9975400e+00   3.7738694e+04
 4.0022202e+00   6.0511846e+04
 4.0068998e+00   3.7911506e+04
 4.0115800e+00   3.7433498e+04
 4.0162601e+00   2.1587801e+04
 4.0209398e+00   2.4277086e+04
 4.0256200e+00   1.8292414e+04
 4.0303001e+00   1.9463316e+04
 4.0349798e+00   1.5986144e+04
 4.0396600e+00   1.6746696e+04
 4.0443401e+00   1.5598729e+04
 4.0490198e+00   1.4533293e+04
 4.0537000e+00   1.4921024e+04
 4.0583801e+00   1.3618703e+04
 4.0630598e+00   1.4271182e+04
 4.0677400e+00   1.3161482e+04
 4.0724201e+00   1.3446972e+04
 4.0770998e+00   1.2677363e+04
 4.0817800e+00   1.3001285e+04
 4.0864601e+00   1.2615243e+04
 4.0911398e+00   1.2669951e+04
 4.0958200e+00   1.2131400e+04
 4.1005001e+00   1.2092938e+04
 4.1051798e+00   1.1866951e+04
 4.1098599e+00   1.1521792e+04
 4.1145401e+00   1.1761254e+04
 4.1192198e+00   1.1462341e+04
 4.1238999e+00   1.1305371e+04
 4.1285801e+00   1.1108417e+04
 4.1332598e+00   1.0968506e+04
 4.1379399e+00   1.0788076e+04
 4.1426201e+00   1.1033789e+04
 4.1472998e+00   1.0400330e+04
 4.1519799e+00   1.0718496e+04
 4.1566601e+00   1.0338843e+04
 4.1613402e+00   1.0466960e+04
 4.1660199e+00   1.0086866e+04
 4.1707001e+00   1.0317278e+04
 4.1753802e+00   9.9061108e+03
 4.1800599e+00   1.0250731e+04
 4.1847401e+00   9.7253286e+03
 4.1894202e+00   1.0043282e+04
 4.1940999e+00   9.6682854e+03
 4.1987801e+00   9.8099146e+03
 4.2034602e+00   9.6917640e+03
 4.2081399e+00   9.6685601e+03
 4.2128201e+00   9.5693815e+03
 4.2175002e+00   9.6432178e+03
 4.2221799e+00   9.4443779e+03
 4.2268600e+00   9.3801752e+03
 4.2315402e+00   9.4803214e+03
 4.2362199e+00   9.2210032e+03
 4.2409000e+00   9.3739486e+03
 4.2455802e+00   9.3002788e+03
 4.2502599e+00   9.2576030e+03
 4.2549400e+00   9.2920098e+03
 4.2596202e+00   9.5556557e+03
 4.2642999e+00   9.4661176e+03
 4.2689800e+00   9.7839648e+03
 4.2736602e+00   9.8221897e+03
 4.2783399e+00   1.0139679e+04
 4.2830200e+00   1.0163228e+04
 4.2877002e+00   1.0481444e+04
 4.2923799e+00   1.0486542e+04
 4.2970600e+00   1.0708672e+04
 4.3017402e+00   1.0479882e+04
 4.3064198e+00   1.0516006e+04
 4.3111000e+00   1.0182370e+04
 4.3157802e+00   1.0145284e+04
 4.3204598e+00   9.8696759e+03
 4.3251400e+00   9.6346293e+03
 4.3298202e+00   9.4555434e+03
 4.3344998e+00   9.2843975e+03
 4.3391800e+00   9.0914680e+03
 4.3438601e+00   9.0547312e+03
 4.3485398e+00   8.9510367e+03
 4.3532200e+00   8.8359587e+03
 4.3579001e+00   8.7844248e+03
 4.3625798e+00   8.6122638e+03
 4.3672600e+00   8.5483334e+03
 4.3719401e+00   8.4583457e+03
 4.3766198e+00   8.3894328e+03
 4.3813000e+00   8.3204963e+03
 4.3859801e+00   8.2370904e+03
 4.3906598e+00   8.1192985e+03
 4.3953400e+00   8.1173740e+03
 4.4000201e+00   7.9963018e+03
 4.4046998e+00   8.0260807e+03
 4.4093800e+00   7.9045596e+03
 4.4140601e+00   7.8618275e+03
 4.4187398e+00   7.8376718e+03
 4.4234200e+00   7.7927978e+03
 4.4281001e+00   7.7036929e+03
 4.4327798e+00   7.7863391e+03
 4.4374599e+00   7.6710222e+03
 4.4421401e+00   7.6620201e+03
 4.4468198e+00   7.6488297e+03
 4.4514999e+00   7.5626406e+03
 4.4561801e+00   7.5710504e+03
 4.4608598e+00   7.5605693e+03
 4.4655399e+00   7.5253495e+03
 4.4702201e+00   7.5331411e+03
 4.4748998e+00   7.4864667e+03
 4.4795799e+00   7.4729018e+03
 4.4842601e+00   7.4618807e+03
 4.4889398e+00   7.4133034e+03
 4.4936199e+00   7.4043585e+03
 4.4983001e+00   7.3767863e+03
 4.5029802e+00   7.3224254e+03
 4.5076599e+00   7.2891101e+03
 4.5123401e+00   7.2715680e+03
 4.5170202e+00   7.1798261e+03
 4.5216999e+00   7.2095338e+03
 4.5263801e+00   7.1486980e+03
 4.5310602e+00   7.1192393e+03
 4.5357399e+00   7.1082902e+03
 4.5404201e+00   7.0741083e+03
 4.5451002e+00   7.0504020e+03
 4.5497799e+00   7.0435863e+03
 4.5544600e+00   7.0108835e+03
 4.5591402e+00   7.0103258e+03
 4.5638199e+00   6.9718633e+03
 4.5685000e+00   6.9330350e+03
 4.5731802e+00   6.9583376e+03
 4.5778599e+00   6.9370013e+03
 4.5825400e+00   6.9178994e+03
 4.5872202e+00   6.9061755e+03
 4.5918999e+00   6.8628398e+03
 4.5965800e+00   6.8659880e+03
 4.6012602e+00   6.8325220e+03
 4.6059399e+00   6.8316951e+03
 4.6106200e+00   6.8281012e+03
 4.6153002e+00   6.8055005e+03
 4.6199799e+00   6.7625751e+03
 4.6246600e+00   6.7724097e+03
 4.6293402e+00   6.7526312e+03
 4.6340199e+00   6.7311199e+03
 4.6387000e+00   6.7294521e+03
 4.6433802e+00   6.6924480e+03
 4.6480598e+00   6.7000973e+03
 4.6527400e+00   6.6814040e+03
 4.6574202e+00   6.6502675e+03
 4.6620998e+00   6.6747226e+03
 4.6667800e+00   6.6609412e+03
 4.6714602e+00   6.6472499e+03
 4.6761398e+00   6.6331758e+03
 4.6808200e+00   6.6235528e+03
 4.6855001e+00   6.6148015e+03
 4.6901798e+00   6.6045258e+03
 4.6948600e+00   6.6109182e+03
 4.6995401e+00   6.6139801e+03
 4.7042198e+00   6.6120320e+03
 4.7089000e+00   6.5930740e+03
 4.7135801e+00   6.6371388e+03
 4.7182598e+00   6.6297417e+03
 4.7229400e+00   6.6906597e+03
 4.7276201e+00   6.6721902e+03
 4.7322998e+00   6.7209101e+03
 4.7369800e+00   6.7535154e+03
 4.7416601e+00   6.7728799e+03
 4.7463398e+00   6.8038174e+03
 4.7510200e+00   6.8407447e+03
 4.7557001e+00   6.8687572e+03
 4.7603798e+00   6.9100250e+03
 4.7650599e+00   6.9667209e+03
 4.7697401e+00   7.0216239e+03
 4.7744198e+00   7.1203686e+03
 4.7790999e+00   7.2038222e+03
 4.7837801e+00   7.3060813e+03
 4.7884598e+00   7.4596039e+03
 4.7931399e+00   7.6240523e+03
 4.7978201e+00   7.8066709e+03
 4.8024998e+00   8.0265525e+03
 4.8071799e+00   8.2331813e+03
 4.8118601e+00   8.4658237e+03
 4.8165398e+00   8.7043786e+03
 4.8212199e+00   8.9523967e+03
 4.8259001e+00   9.1755486e+03
 4.8305802e+00   9.3717027e+03
 4.8352599e+00   9.5117311e+03
 4.8399401e+00   9.5859700e+03
 4.8446202e+00   9.5531496e+03
 4.8492999e+00   9.4182167e+03
 4.8539801e+00   9.2009253e+03
 4.8586602e+00   8.9142107e+03
 4.8633399e+00   8.5891469e+03
 4.8680201e+00   8.2586826e+03
 4.8727002e+00   7.9633622e+03
 4.8773799e+00   7.7349822e+03
 4.8820601e+00   7.5543238e+03
 4.8867402e+00   7.4146098e+03
 4.8914199e+00   7.3456515e+03
 4.8961000e+00   7.3195037e+03
 4.9007802e+00   7.2790650e+03
 4.9054599e+00   7.3225070e+03
 4.9101400e+00   7.3754494e+03
 4.9148202e+00   7.4226504e+03
 4.9194999e+00   7.4872640e+03
 4.9241800e+00   7.5701060e+03
 4.9288602e+00   7.6474569e+03
 4.9335399e+00   7.7566763e+03
 4.9382200e+00   7.8661959e+03
 4.9429002e+00   7.9771656e+03
 4.9475799e+00   8.1662979e+03
 4.9522600e+00   8.3393557e+03
 4.9569402e+00   8.5686086e+03
 4.9616199e+00   8.8041540e+03
 4.9663000e+00   9.0860034e+03
 4.9709802e+00   9.3564895e+03
 4.9756598e+00   9.6467494e+03
 4.9803400e+00   9.9116510e+03
 4.9850202e+00   1.0153979e+04
 4.9896998e+00   1.0294049e+04
 4.9943800e+00   1.0406095e+04
 4.9990602e+00   1.0409000e+04
 5.0037398e+00   1.0286506e+04
 5.0084200e+00   1.0105291e+04
 5.0131001e+00   9.8514273e+03
 5.0177798e+00   9.5186536e+03
 5.0224600e+00   9.1434208e+03
 5.0271401e+00   8.7781422e+03
 5.0318198e+00   8.4158492e+03
 5.0365000e+00   8.1183460e+03
 5.0411801e+00   7.8049477e+03
 5.0458598e+00   7.5672952e+03
 5.0505400e+00   7.3400965e+03
 5.0552201e+00   7.1876052e+03
 5.0598998e+00   7.0236919e+03
 5.0645800e+00   6.9520637e+03
 5.0692601e+00   6.9120370e+03
 5.0739398e+00   6.9047507e+03
 5.0786200e+00   6.9510355e+03
 5.0833001e+00   7.0712495e+03
 5.0879798e+00   7.1635115e+03
 5.0926600e+00   7.5602550e+03
 5.0973401e+00   7.8109578e+03
 5.1020198e+00   8.2584502e+03
 5.1066999e+00   9.4934904e+03
 5.1113801e+00   1.0444892e+04
 5.1160598e+00   1.2790176e+04
 5.1207399e+00   1.7153098e+04
 5.1254201e+00   2.0984649e+04
 5.1300998e+00   3.0647919e+04
 5.1347799e+00   3.9355782e+04
 5.1394601e+00   4.3602538e+04
 5.1441398e+00   5.1158991e+04
 5.1488199e+00   4.7264034e+04
 5.1535001e+00   4.1426190e+04
 5.1581802e+00   3.6015377e+04
 5.1628599e+00   2.5993569e+04
 5.1675401e+00   1.9269599e+04
 5.1722202e+00   1.4749124e+04
 5.1768999e+00   1.0895177e+04
 5.1815801e+00   9.3937440e+03
 5.1862602e+00   8.0399090e+03
 5.1909399e+00   7.3180116e+03
 5.1956201e+00   7.0818771e+03
 5.2003002e+00   6.7336878e+03
 5.2049799e+00   6.5707146e+03
 5.2096601e+00   6.4666004e+03
 5.2143402e+00   6.3485714e+03
 5.2190199e+00   6.2769784e+03
 5.2237000e+00   6.2247900e+03
 5.2283802e+00   6.1582463e+03
 5.2330599e+00   6.1403686e+03
 5.2377400e+00   6.1083488e+03
 5.2424202e+00   6.0474598e+03
 5.2470999e+00   6.0371253e+03
 5.2517800e+00   6.0254986e+03
 5.2564602e+00   5.9923310e+03
 5.2611399e+00   5.9964271e+03
 5.2658200e+00   5.9612653e+03
 5.2705002e+00   5.9428064e+03
 5.2751799e+00   5.9400904e+03
 5.2798600e+00   5.9343702e+03
 5.2845402e+00   5.9135945e+03
 5.2892199e+00   5.9426679e+03
 5.2939000e+00   5.9161604e+03
 5.2985802e+00   5.9045453e+03
 5.3032598e+00   5.9273636e+03
 5.3079400e+00   5.8924489e+03
 5.3126202e+00   5.8887642e+03
 5.3172998e+00   5.8880326e+03
 5.3219800e+00   5.8786726e+03
 5.3266602e+00   5.8829357e+03
 5.3313398e+00   5.8637755e+03
 5.3360200e+00   5.8499611e+03
 5.3407001e+00   5.8717040e+03
 5.3453798e+00   5.8529845e+03
 5.3500600e+00   5.8418302e+03
 5.3547401e+00   5.8620269e+03
 5.3594198e+00   5.8358210e+03
 5.3641000e+00   5.8402487e+03
 5.3687801e+00   5.8441673e+03
 5.3734598e+00   5.8089160e+03
 5.3781400e+00   5.8651845e+03
 5.3828201e+00   5.8204689e+03
 5.3874998e+00   5.8161814e+03
 5.3921800e+00   5.8363848e+03
 5.3968601e+00   5.8346013e+03
 5.4015398e+00   5.8466601e+03
 5.4062200e+00   5.8577758e+03
 5.4109001e+00   5.8285214e+03
 5.4155798e+00   5.8736051e+03
 5.4202600e+00   5.8581932e+03
 5.4249401e+00   5.8520498e+03
 5.4296198e+00   5.8868282e+03
 5.4342999e+00   5.8758002e+03
 5.4389801e+00   5.8872496e+03
 5.4436598e+00   5.9140146e+03
 5.4483399e+00   5.9021426e+03
 5.4530201e+00   5.9463735e+03
 5.4576998e+00   5.9496393e+03
 5.4623799e+00   5.9506767e+03
 5.4670601e+00   6.0105843e+03
 5.4717398e+00   6.0113371e+03
 5.4764199e+00   6.0273466e+03
 5.4811001e+00   6.1040480e+03
 5.4857798e+00   6.1209055e+03
 5.4904599e+00   6.1849545e+03
 5.4951401e+00   6.2392937e+03
 5.4998202e+00   6.2849436e+03
 5.5044999e+00   6.4154618e+03
 5.5091801e+00   6.5082469e+03
 5.5138602e+00   6.6313460e+03
 5.5185399e+00   6.8286800e+03
 5.5232201e+00   7.0042973e+03
 5.5279002e+00   7.2562589e+03
 5.5325799e+00   7.5609560e+03
 5.5372601e+00   7.8325530e+03
 5.5419402e+00   8.2152200e+03
 5.5466199e+00   8.5274416e+03
 5.5513000e+00   8.8339814e+03
 5.5559802e+00   9.1406423e+03
 5.5606599e+00   9.3446879e+03
 5.5653400e+00   9.4690891e+03
 5.5700202e+00   9.5565072e+03
 5.5746999e+00   9.5244575e+03
 5.5793800e+00   9.4691102e+03
 5.5840602e+00   9.3601000e+03
 5.5887399e+00   9.1755738e+03
 5.5934200e+00   9.0651341e+03
 5.5981002e+00   9.0120689e+03
 5.6027799e+00   9.0653161e+03
 5.6074600e+00   8.4819426e+03
 5.6121402e+00   8.1573907e+03
 5.6168199e+00   7.8586299e+03
 5.6215000e+00   7.6539072e+03
 5.6261802e+00   7.4420384e+03
 5.6308599e+00   7.2869439e+03
 5.6355400e+00   7.1333552e+03
 5.6402202e+00   6.9690936e+03
 5.6448998e+00   6.8800689e+03
 5.6495800e+00   6.7655275e+03
 5.6542602e+00   6.6680513e+03
 5.6589398e+00   6.5964801e+03
 5.6636200e+00   6.4879585e+03
 5.6683002e+00   6.4489363e+03
 5.6729798e+00   6.3882404e+03
 5.6776600e+00   6.3149496e+03
 5.6823401e+00   6.2938614e+03
 5.6870198e+00   6.2407656e+03
 5.6917000e+00   6.1724615e+03
 5.6963801e+00   6.1788076e+03
 5.7010598e+00   6.1208969e+03
 5.7057400e+00   6.1219077e+03
 5.7104201e+00   6.1047063e+03
 5.7150998e+00   6.0622832e+03
 5.7197800e+00   6.0897148e+03
 5.7244601e+00   6.0702429e+03
 5.7291398e+00   6.0597286e+03
 5.7338200e+00   6.0901405e+03
 5.7385001e+00   6.0808482e+03
 5.7431798e+00   6.0797695e+03
 5.7478600e+00   6.1082397e+03
 5.7525401e+00   6.1023818e+03
 5.7572198e+00   6.1390145e+03
 5.7618999e+00   6.1249521e+03
 5.7665801e+00   6.1182914e+03
 5.7712598e+00   6.1534979e+03
 5.7759399e+00   6.1264279e+03
 5.7806201e+00   6.1151411e+03
 5.7852998e+00   6.1182860e+03
 5.7899799e+00   6.0800152e+03
 5.7946601e+00   6.0965251e+03
 5.7993398e+00   6.1104834e+03
 5.8040199e+00   6.0808089e+03
 5.8087001e+00   6.1295985e+03
 5.8133798e+00   6.1052751e+03
 5.8180599e+00   6.0872301e+03
 5.8227401e+00   6.1479805e+03
 5.8274202e+00   6.1395765e+03
 5.8320999e+00   6.1446125e+03
 5.8367801e+00   6.1912082e+03
 5.8414602e+00   6.1762206e+03
 5.8461399e+00   6.2574806e+03
 5.8508201e+00   6.2765108e+03
 5.8555002e+00   6.2946578e+03
 5.8601799e+00   6.3843177e+03
 5.8648601e+00   6.3964823e+03
 5.8695402e+00   6.4729249e+03
 5.8742199e+00   6.5680176e+03
 5.8789001e+00   6.6120168e+03
 5.8835802e+00   6.7391720e+03
 5.8882599e+00   6.8531384e+03
 5.8929400e+00   6.9632904e+03
 5.8976202e+00   7.1818147e+03
 5.9022999e+00   7.4103215e+03
 5.9069800e+00   7.7574029e+03
 5.9116602e+00   8.2433401e+03
 5.9163399e+00   8.8974018e+03
 5.9210200e+00   9.8439683e+03
 5.9257002e+00   1.1162713e+04
 5.9303799e+00   1.2753083e+04
 5.9350600e+00   1.4232982e+04
 5.9397402e+00   1.5112183e+04
 5.9444199e+00   1.5347909e+04
 5.9491000e+00   1.5160614e+04
 5.9537802e+00   1.4349642e+04
 5.9584599e+00   1.3282820e+04
 5.9631400e+00   1.2186299e+04
 5.9678202e+00   1.1432281e+04
 5.9724998e+00   1.0838249e+04
 5.9771800e+00   1.0487197e+04
 5.9818602e+00   1.0219146e+04
 5.9865398e+00   1.0052785e+04
 5.9912200e+00   9.8059652e+03
 5.9959002e+00   9.5680385e+03
 6.0005798e+00   9.3480396e+03
 6.0052600e+00   9.0669012e+03
 6.0099401e+00   8.8149543e+03
 6.0146198e+00   8.5458834e+03
 6.0193000e+00   8.2480423e+03
 6.0239801e+00   8.0302876e+03
 6.0286598e+00   7.7620316e+03
 6.0333400e+00   7.5301067e+03
 6.0380201e+00   7.3603382e+03
 6.0426998e+00   7.1593755e+03
 6.0473800e+00   6.9814827e+03
 6.0520601e+00   6.8513994e+03
 6.0567398e+00   6.6859015e+03
 6.0614200e+00   6.5979631e+03
 6.0661001e+00   6.4953579e+03
 6.0707798e+00   6.4011226e+03
 6.0754600e+00   6.3656246e+03
 6.0801401e+00   6.2956015e+03
 6.0848198e+00   6.2213887e+03
 6.0895000e+00   6.2156820e+03
 6.0941801e+00   6.1261534e+03
 6.0988598e+00   6.1199164e+03
 6.1035399e+00   6.0744465e+03
 6.1082201e+00   6.0393855e+03
 6.1128998e+00   6.0493250e+03
 6.1175799e+00   6.0050789e+03
 6.1222601e+00   5.9866398e+03
 6.1269398e+00   5.9860335e+03
 6.1316199e+00   5.9604176e+03
 6.1363001e+00   5.9568341e+03
 6.1409798e+00   5.9632211e+03
 6.1456599e+00   5.9204263e+03
 6.1503401e+00   5.9261432e+03
 6.1550202e+00   5.9100731e+03
 6.1596999e+00   5.9142695e+03
 6.1643801e+00   5.9107504e+03
 6.1690602e+00   5.9029370e+03
 6.1737399e+00   5.8916954e+03
 6.1784201e+00   5.9099007e+03
 6.1831002e+00   5.8870226e+03
 6.1877799e+00   5.9047102e+03
 6.1924601e+00   5.8948300e+03
 6.1971402e+00   5.8942023e+03
 6.2018199e+00   5.9056954e+03
 6.2065001e+00   5.8895865e+03
 6.2111802e+00   5.8844176e+03
 6.2158599e+00   5.8898775e+03
 6.2205400e+00   5.8835526e+03
 6.2252202e+00   5.8844225e+03
 6.2298999e+00   5.9055631e+03
 6.2345800e+00   5.8735086e+03
 6.2392602e+00   5.8890027e+03
 6.2439399e+00   5.8778640e+03
 6.2486200e+00   5.8842094e+03
 6.2533002e+00   5.8875976e+03
 6.2579799e+00   5.9075317e+03
 6.2626600e+00   5.8943340e+03
 6.2673402e+00   5.9021118e+03
 6.2720199e+00   5.8765171e+03
 6.2767000e+00   5.9220288e+03
 6.2813802e+00   5.9004494e+03
 6.2860599e+00   5.8956583e+03
 6.2907400e+00   5.8955551e+03
 6.2954202e+00   5.9165520e+03
 6.3000998e+00   5.9014946e+03
 6.3047800e+00   5.9390463e+03
 6.3094602e+00   5.9151886e+03
 6.3141398e+00   5.9364077e+03
 6.3188200e+00   5.9450547e+03
 6.3235002e+00   5.9285068e+03
 6.3281798e+00   5.9676971e+03
 6.3328600e+00   5.9484084e+03
 6.3375401e+00   5.9756898e+03
 6.3422198e+00   5.9662992e+03
 6.3469000e+00   5.9582759e+03
 6.3515801e+00   5.9725521e+03
 6.3562598e+00   6.0097147e+03
 6.3609400e+00   5.9550042e+03
 6.3656201e+00   6.0098760e+03
 6.3702998e+00   5.9764699e+03
 6.3749800e+00   5.9802845e+03
 6.3796601e+00   5.9827788e+03
 6.3843398e+00   6.0166072e+03
 6.3890200e+00   6.0139861e+03
 6.3937001e+00   6.0175587e+03
 6.3983798e+00   6.0113885e+03
 6.4030600e+00   6.0407719e+03
 6.4077401e+00   6.0580526e+03
 6.4124198e+00   6.0408162e+03
 6.4171000e+00   6.0901858e+03
 6.4217801e+00   6.0787734e+03
 6.4264598e+00   6.0976873e+03
 6.4311399e+00   6.1172554e+03
 6.4358201e+00   6.1299936e+03
 6.4404998e+00   6.1325840e+03
 6.4451799e+00   6.1741658e+03
 6.4498601e+00   6.1266642e+03
 6.4545398e+00   6.1812253e+03
 6.4592199e+00   6.1348160e+03
 6.4639001e+00   6.2021579e+03
 6.4685798e+00   6.1794241e+03
 6.4732599e+00   6.2150940e+03
 6.4779401e+00   6.1877060e+03
 6.4826198e+00   6.2293121e+03
 6.4872999e+00   6.1870780e+03
 6.4919801e+00   6.2558801e+03
 6.4966602e+00   6.2520727e+03
 6.5013399e+00   6.2258485e+03
 6.5060201e+00   6.2867541e+03
 6.5107002e+00   6.2812828e+03
 6.5153799e+00   6.3218093e+03
 6.5200601e+00   6.3082590e+03
 6.5247402e+00   6.3641190e+03
 6.5294199e+00   6.3076030e+03
 6.5341001e+00   6.3726091e+03
 6.5387802e+00   6.3375990e+03
 6.5434599e+00   6.3946453e+03
 6.5481400e+00   6.3747064e+03
 6.5528202e+00   6.4526783e+03
 6.5574999e+00   6.4045626e+03
 6.5621800e+00   6.4538315e+03
 6.5668602e+00   6.4249861e+03
 6.5715399e+00   6.5216665e+03
 6.5762200e+00   6.4486343e+03
 6.5809002e+00   6.5641712e+03
 6.5855799e+00   6.4953730e+03
 6.5902600e+00   6.5745918e+03
 6.5949402e+00   6.5731308e+03
 6.5996199e+00   6.5824273e+03
 6.6043000e+00   6.6564077e+03
 6.6089802e+00   6.6387144e+03
 6.6136599e+00   6.6644643e+03
 6.6183400e+00   6.6846126e+03
 6.6230202e+00   6.7004684e+03
 6.6276999e+00   6.6951259e+03
 6.6323800e+00   6.8096480e+03
 6.6370602e+00   6.7420515e+03
 6.6417398e+00   6.8339816e+03
 6.6464200e+00   6.8132397e+03
 6.6511002e+00   6.9088553e+03
 6.6557798e+00   6.8631373e+03
 6.6604600e+00   7.0097387e+03
 6.6651402e+00   6.9162714e+03
 6.6698198e+00   6.9974797e+03
 6.6745000e+00   6.9354696e+03
 6.6791801e+00   7.0554168e+03
 6.6838598e+00   7.0481258e+03
 6.6885400e+00   7.0655620e+03
 6.6932201e+00   7.1123380e+03
 6.6978998e+00   7.0886043e+03
 6.7025800e+00   7.1595607e+03
 6.7072601e+00   7.1601488e+03
 6.7119398e+00   7.2037687e+03
 6.7166200e+00   7.2005518e+03
 6.7213001e+00   7.3184035e+03
 6.7259798e+00   7.2201815e+03
 6.7306600e+00   7.3634699e+03
 6.7353401e+00   7.3431722e+03
 6.7400198e+00   7.4744934e+03
 6.7447000e+00   7.3918247e+03
 6.7493801e+00   7.4779392e+03
 6.7540598e+00   7.4404321e+03
 6.7587399e+00   7.6329907e+03
 6.7634201e+00   7.5693469e+03
 6.7680998e+00   7.6584949e+03
 6.7727799e+00   7.7263530e+03
 6.7774601e+00   7.6649189e+03
 6.7821398e+00   7.7975603e+03
 6.7868199e+00   7.8369140e+03
 6.7915001e+00   7.9503270e+03
 6.7961798e+00   7.9179402e+03
 6.8008599e+00   8.0810364e+03
 6.8055401e+00   7.9851398e+03
 6.8102198e+00   8.2419523e+03
 6.8148999e+00   8.2897505e+03
 6.8195801e+00   8.5315517e+03
 6.8242602e+00   8.5289510e+03
 6.8289399e+00   8.9110855e+03
 6.8336201e+00   8.8568954e+03
 6.8383002e+00   9.5551278e+03
 6.8429799e+00   1.0469183e+04
 6.8476601e+00   1.1774691e+04
 6.8523402e+00   1.5126492e+04
 6.8570199e+00   1.4740908e+04
 6.8617001e+00   2.3745165e+04
 6.8663802e+00   2.8516770e+04
 6.8710599e+00   3.4833758e+04
 6.8757401e+00   3.9286653e+04
 6.8804202e+00   2.7674971e+04
 6.8850999e+00   3.3090830e+04
 6.8897800e+00   2.2910260e+04
 6.8944602e+00   2.2124995e+04
 6.8991399e+00   1.7936822e+04
 6.9038200e+00   1.3483368e+04
 6.9085002e+00   1.1663284e+04
 6.9131799e+00   1.0969129e+04
 6.9178600e+00   1.0737914e+04
 6.9225402e+00   1.0358772e+04
 6.9272199e+00   1.0431789e+04
 6.9319000e+00   1.0187904e+04
 6.9365802e+00   1.0085423e+04
 6.9412599e+00   9.9453835e+03
 6.9459400e+00   9.8556971e+03
 6.9506202e+00   9.9603612e+03
 6.9552999e+00   9.7740735e+03
 6.9599800e+00   9.7692836e+03
 6.9646602e+00   9.4648693e+03
 6.9693398e+00   9.3728748e+03
 6.9740200e+00   9.2988368e+03
 6.9787002e+00   9.3369353e+03
 6.9833798e+00   9.0397492e+03
 6.9880600e+00   9.1449467e+03
 6.9927402e+00   8.8148287e+03
 6.9974198e+00   8.8762361e+03
 7.0021000e+00   8.6344321e+03
 7.0067801e+00   8.7598986e+03
 7.0114598e+00   8.5728662e+03
 7.0161400e+00   8.5305552e+03
 7.0208201e+00   8.3880813e+03
 7.0254998e+00   8.3468016e+03
 7.0301800e+00   8.2891681e+03
 7.0348601e+00   8.2394894e+03
 7.0395398e+00   8.2329738e+03
 7.0442200e+00   8.0546329e+03
 7.0489001e+00   8.1011963e+03
 7.0535798e+00   7.9800690e+03
 7.0582600e+00   8.0210220e+03
 7.0629401e+00   7.9811333e+03
 7.0676198e+00   7.9460791e+03
 7.0723000e+00   7.8329158e+03
 7.0769801e+00   7.7747035e+03
 7.0816598e+00   7.6270827e+03
 7.0863400e+00   7.7042449e+03
 7.0910201e+00   7.4729202e+03
 7.0956998e+00   7.5135729e+03
 7.1003799e+00   7.4162851e+03
 7.1050601e+00   7.3714869e+03
 7.1097398e+00   7.2948253e+03
 7.1144199e+00   7.3157583e+03
 7.1191001e+00   7.2621211e+03
 7.1237798e+00   7.2338773e+03
 7.1284599e+00   7.1862802e+03
 7.1331401e+00   7.1395643e+03
 7.1378198e+00   7.1746324e+03
 7.1424999e+00   7.1118070e+03
 7.1471801e+00   7.1300448e+03
 7.1518602e+00   7.0907513e+03
 7.1565399e+00   7.0677634e+03
 7.1612201e+00   7.0344979e+03
 7.1659002e+00   7.0563634e+03
 7.1705799e+00   6.9639885e+03
 7.1752601e+00   7.0442077e+03
 7.1799402e+00   6.9498408e+03
 7.1846199e+00   7.0026100e+03
 7.1893001e+00   6.9346950e+03
 7.1939802e+00   6.9743800e+03
 7.1986599e+00   6.9208309e+03
 7.2033401e+00   6.9174459e+03
 7.2080202e+00   6.8956771e+03
 7.2126999e+00   6.9214619e+03
 7.2173800e+00   6.8797046e+03
 7.2220602e+00   6.8837864e+03
 7.2267399e+00   6.8940121e+03
 7.2314200e+00   6.8573560e+03
 7.2361002e+00   6.8815991e+03
 7.2407799e+00   6.8655391e+03
 7.2454600e+00   6.8804717e+03
 7.2501402e+00   6.8720266e+03
 7.2548199e+00   6.8840912e+03
 7.2595000e+00   6.8550723e+03
 7.2641802e+00   6.9244894e+03
 7.2688599e+00   6.8376468e+03
 7.2735400e+00   6.8969965e+03
 7.2782202e+00   6.8493476e+03
 7.2828999e+00   6.8869310e+03
 7.2875800e+00   6.8483706e+03
 7.2922602e+00   6.8454897e+03
 7.2969398e+00   6.8239714e+03
 7.3016200e+00   6.8233995e+03
 7.3063002e+00   6.8083404e+03
 7.3109798e+00   6.8186893e+03
 7.3156600e+00   6.8198989e+03
 7.3203402e+00   6.8229793e+03
 7.3250198e+00   6.8447973e+03
 7.3297000e+00   6.8341523e+03
 7.3343801e+00   6.8646440e+03
 7.3390598e+00   6.8672121e+03
 7.3437400e+00   6.8907762e+03
 7.3484201e+00   6.8756959e+03
 7.3530998e+00   6.9052852e+03
 7.3577800e+00   6.8914285e+03
 7.3624601e+00   6.9166221e+03
 7.3671398e+00   6.9128140e+03
 7.3718200e+00   6.9378509e+03
 7.3765001e+00   6.9329695e+03
 7.3811798e+00   6.9394000e+03
 7.3858600e+00   6.9590034e+03
 7.3905401e+00   6.9646769e+03
 7.3952198e+00   6.9714730e+03
 7.3999000e+00   7.0036954e+03
 7.4045801e+00   7.0322247e+03
 7.4092598e+00   7.0503303e+03
 7.4139400e+00   7.1100332e+03
 7.4186201e+00   7.1105133e+03
 7.4232998e+00   7.1551057e+03
 7.4279799e+00   7.1965221e+03
 7.4326601e+00   7.2289083e+03
 7.4373398e+00   7.2786225e+03
 7.4420199e+00   7.3165915e+03
 7.4467001e+00   7.3347443e+03
 7.4513798e+00   7.3840622e+03
 7.4560599e+00   7.4174762e+03
 7.4607401e+00   7.4152169e+03
 7.4654198e+00   7.4429645e+03
 7.4700999e+00   7.4224470e+03
 7.4747801e+00   7.4554542e+03
 7.4794598e+00   7.4209709e+03
 7.4841399e+00   7.4188837e+03
 7.4888201e+00   7.3958451e+03
 7.4935002e+00   7.3622624e+03
 7.4981799e+00   7.3219243e+03
 7.5028601e+00   7.3165661e+03
 7.5075402e+00   7.2695613e+03
 7.5122199e+00   7.2502187e+03
 7.5169001e+00   7.2001327e+03
 7.5215802e+00   7.1809863e+03
 7.5262599e+00   7.1597010e+03
 7.5309401e+00   7.1109508e+03
 7.5356202e+00   7.1036270e+03
 7.5402999e+00   7.0803405e+03
 7.5449800e+00   7.0564785e+03
 7.5496602e+00   7.0401391e+03
 7.5543399e+00   7.0132773e+03
 7.5590200e+00   6.9884518e+03
 7.5637002e+00   7.0055052e+03
 7.5683799e+00   6.9617893e+03
 7.5730600e+00   6.9506774e+03
 7.5777402e+00   6.9311856e+03
 7.5824199e+00   6.9182900e+03
 7.5871000e+00   6.8916271e+03
 7.5917802e+00   6.9022624e+03
 7.5964599e+00   6.8747508e+03
 7.6011400e+00   6.8551958e+03
 7.6058202e+00   6.8067646e+03
 7.6104999e+00   6.7846525e+03
 7.6151800e+00   6.7616927e+03
 7.6198602e+00   6.6870931e+03
 7.6245399e+00   6.6807707e+03
 7.6292200e+00   6.5998232e+03
 7.6339002e+00   6.6032222e+03
 7.6385798e+00   6.5142531e+03
 7.6432600e+00   6.5304202e+03
 7.6479402e+00   6.4717636e+03
 7.6526198e+00   6.4833162e+03
 7.6573000e+00   6.4151119e+03
 7.6619802e+00   6.4248436e+03
 7.6666598e+00   6.3795846e+03
 7.6713400e+00   6.4146890e+03
 7.6760201e+00   6.3524741e+03
 7.6806998e+00   6.3963022e+03
 7.6853800e+00   6.3494491e+03
 7.6900601e+00   6.3709114e+03
 7.6947398e+00   6.3537994e+03
 7.6994200e+00   6.3629478e+03
 7.7041001e+00   6.3641096e+03
 7.7087798e+00   6.3551902e+03
 7.7134600e+00   6.3526354e+03
 7.7181401e+00   6.3134996e+03
 7.7228198e+00   6.3585204e+03
 7.7275000e+00   6.3324577e+03
 7.7321801e+00   6.3532848e+03
 7.7368598e+00   6.3145261e+03
 7.7415400e+00   6.3671120e+03
 7.7462201e+00   6.3152421e+03
 7.7508998e+00   6.3818028e+03
 7.7555799e+00   6.3078958e+03
 7.7602601e+00   6.3801419e+03
 7.7649398e+00   6.3035931e+03
 7.7696199e+00   6.3744575e+03
 7.7743001e+00   6.3509078e+03
 7.7789798e+00   6.3585059e+03
 7.7836599e+00   6.3710684e+03
 7.7883401e+00   6.3531918e+03
 7.7930198e+00   6.3907185e+03
 7.7976999e+00   6.3712029e+03
 7.8023801e+00   6.3980965e+03
 7.8070598e+00   6.3833056e+03
 7.8117399e+00   6.3989364e+03
 7.8164201e+00   6.3615503e+03
 7.8211002e+00   6.4440438e+03
 7.8257799e+00   6.3621621e+03
 7.8304601e+00   6.4814356e+03
 7.8351402e+00   6.4130951e+03
 7.8398199e+00   6.4840068e+03
 7.8445001e+00   6.3931726e+03
 7.8491802e+00   6.5011264e+03
 7.8538599e+00   6.4282566e+03
 7.8585401e+00   6.5835183e+03
 7.8632202e+00   6.4690223e+03
 7.8678999e+00   6.5508246e+03
 7.8725801e+00   6.5370675e+03
 7.8772602e+00   6.5929507e+03
 7.8819399e+00   6.6412704e+03
 7.8866200e+00   6.6860891e+03
 7.8913002e+00   6.8083904e+03
 7.8959799e+00   6.6935069e+03
 7.9006600e+00   7.0507188e+03
 7.9053402e+00   6.8861330e+03
 7.9100199e+00   7.8695913e+03
 7.9147000e+00   7.7147047e+03
 7.9193802e+00   9.7843592e+03
 7.9240599e+00   8.2684242e+03
 7.9287400e+00   1.7077372e+04
 7.9334202e+00   1.1093320e+04
 7.9380999e+00   2.5060408e+04
 7.9427800e+00   2.0572124e+04
 7.9474602e+00   2.4995598e+04
 7.9521399e+00   1.7735040e+04
 7.9568200e+00   2.3192325e+04
 7.9615002e+00   1.5905930e+04
 7.9661798e+00   1.3406019e+04
 7.9708600e+00   1.1794886e+04
 7.9755402e+00   8.0550451e+03
 7.9802198e+00   8.0493257e+03
 7.9849000e+00   7.1497407e+03
 7.9895802e+00   7.0325333e+03
 7.9942598e+00   6.7586378e+03
 7.9989400e+00   6.6730574e+03
 8.0036201e+00   6.4717279e+03
 8.0082998e+00   6.5002167e+03
 8.0129805e+00   6.3792532e+03
 8.0176601e+00   6.4909114e+03
 8.0223398e+00   6.3011196e+03
 8.0270205e+00   6.3632140e+03
 8.0317001e+00   6.2096763e+03
 8.0363798e+00   6.3165490e+03
 8.0410604e+00   6.2549866e+03
 8.0457401e+00   6.2553628e+03
 8.0504198e+00   6.1949980e+03
 8.0551004e+00   6.1701600e+03
 8.0597801e+00   6.1999699e+03
 8.0644598e+00   6.1350744e+03
 8.0691404e+00   6.2315896e+03
 8.0738201e+00   6.1458492e+03
 8.0784998e+00   6.1853666e+03
 8.0831804e+00   6.1187599e+03
 8.0878601e+00   6.1986884e+03
 8.0925398e+00   6.1242389e+03
 8.0972204e+00   6.2352321e+03
 8.1019001e+00   6.1480516e+03
 8.1065798e+00   6.2268271e+03
 8.1112604e+00   6.1287438e+03
 8.1159401e+00   6.2311802e+03
 8.1206198e+00   6.1716482e+03
 8.1253004e+00   6.1922798e+03
 8.1299801e+00   6.1940529e+03
 8.1346598e+00   6.1692019e+03
 8.1393404e+00   6.1441367e+03
 8.1440201e+00   6.1275672e+03
 8.1486998e+00   6.1825967e+03
 8.1533804e+00   6.0921395e+03
 8.1580601e+00   6.1631406e+03
 8.1627398e+00   6.0973322e+03
 8.1674204e+00   6.1778061e+03
 8.1721001e+00   6.1205226e+03
 8.1767797e+00   6.1975527e+03
 8.1814604e+00   6.1447344e+03
 8.1861401e+00   6.2260816e+03
 8.1908197e+00   6.1973350e+03
 8.1955004e+00   6.2613205e+03
 8.2001801e+00   6.2821783e+03
 8.2048597e+00   6.3573380e+03
 8.2095404e+00   6.4005805e+03
 8.2142200e+00   6.4527862e+03
 8.2188997e+00   6.5354303e+03
 8.2235804e+00   6.5982867e+03
 8.2282600e+00   6.7088136e+03
 8.2329397e+00   6.7675013e+03
 8.2376204e+00   6.8870781e+03
 8.2423000e+00   6.9472218e+03
 8.2469797e+00   7.0711819e+03
 8.2516603e+00   7.1302404e+03
 8.2563400e+00   7.2706071e+03
 8.2610197e+00   7.3208916e+03
 8.2657003e+00   7.4479242e+03
 8.2703800e+00   7.5318791e+03
 8.2750597e+00   7.6496415e+03
 8.2797403e+00   7.7131404e+03
 8.2844200e+00   7.7921998e+03
 8.2890997e+00   7.8262287e+03
 8.2937803e+00   7.8424887e+03
 8.2984600e+00   7.8669647e+03
 8.3031397e+00   7.8026458e+03
 8.3078203e+00   7.7403013e+03
 8.3125000e+00   7.6072136e+03
 8.3171797e+00   7.4862960e+03
 8.3218603e+00   7.2947023e+03
 8.3265400e+00   7.1559550e+03
 8.3312197e+00   6.9578267e+03
 8.3359003e+00   6.8042949e+03
 8.3405800e+00   6.6028668e+03
 8.3452597e+00   6.4746515e+03
 8.3499403e+00   6.3405723e+03
 8.3546200e+00   6.2704321e+03
 8.3592997e+00   6.1696003e+03
 8.3639803e+00   6.1363041e+03
 8.3686600e+00   6.1612403e+03
 8.3733397e+00   6.2727935e+03
 8.3780203e+00   6.4857147e+03
 8.3827000e+00   6.9226455e+03
 8.3873796e+00   7.5468151e+03
 8.3920603e+00   8.4515465e+03
 8.3967400e+00   9.4391647e+03
 8.4014196e+00   1.0212657e+04
 8.4061003e+00   1.0921544e+04
 8.4107800e+00   1.0706350e+04
 8.4154596e+00   1.0068764e+04
 8.4201403e+00   9.3258423e+03
 8.4248199e+00   8.2691839e+03
 8.4294996e+00   7.4112051e+03
 8.4341803e+00   6.7608396e+03
 8.4388599e+00   6.3425004e+03
 8.4435396e+00   6.1232895e+03
 8.4482203e+00   5.9582980e+03
 8.4528999e+00   5.8794793e+03
 8.4575796e+00   5.8415396e+03
 8.4622602e+00   5.8185060e+03
 8.4669399e+00   5.8311240e+03
 8.4716196e+00   5.8334626e+03
 8.4763002e+00   5.8624857e+03
 8.4809799e+00   5.8843609e+03
 8.4856596e+00   5.9224651e+03
 8.4903402e+00   5.9467788e+03
 8.4950199e+00   6.0132355e+03
 8.4996996e+00   6.0481718e+03
 8.5043802e+00   6.1226542e+03
 8.5090599e+00   6.1619760e+03
 8.5137396e+00   6.2529315e+03
 8.5184202e+00   6.2980305e+03
 8.5230999e+00   6.4125958e+03
 8.5277796e+00   6.4761285e+03
 8.5324602e+00   6.5776401e+03
 8.5371399e+00   6.6584999e+03
 8.5418196e+00   6.7535760e+03
 8.5465002e+00   6.8434182e+03
 8.5511799e+00   6.9418432e+03
 8.5558596e+00   7.0408886e+03
 8.5605402e+00   7.0976323e+03
 8.5652199e+00   7.1986370e+03
 8.5698996e+00   7.2196989e+03
 8.5745802e+00   7.3047120e+03
 8.5792599e+00   7.3038667e+03
 8.5839396e+00   7.3385078e+03
 8.5886202e+00   7.3064467e+03
 8.5932999e+00   7.2941545e+03
 8.5979795e+00   7.2274016e+03
 8.6026602e+00   7.1686208e+03
 8.6073399e+00   7.0995170e+03
 8.6120195e+00   7.0008368e+03
 8.6167002e+00   6.9134791e+03
 8.6213799e+00   6.7932434e+03
 8.6260595e+00   6.7020385e+03
 8.6307402e+00   6.5940910e+03
 8.6354198e+00   6.5047787e+03
 8.6400995e+00   6.4228705e+03
 8.6447802e+00   6.3319334e+03
 8.6494598e+00   6.2281671e+03
 8.6541405e+00   6.1519623e+03
 8.6588202e+00   6.0706214e+03
 8.6634998e+00   6.0057593e+03
 8.6681805e+00   5.9334856e+03
 8.6728601e+00   5.8745601e+03
 8.6775398e+00   5.8196184e+03
 8.6822205e+00   5.7682474e+03
 8.6869001e+00   5.7254407e+03
 8.6915798e+00   5.6909362e+03
 8.6962605e+00   5.6623269e+03
 8.7009401e+00   5.6195792e+03
 8.7056198e+00   5.5913990e+03
 8.7103004e+00   5.5564949e+03
 8.7149801e+00   5.5452999e+03
 8.7196598e+00   5.5166170e+03
 8.7243404e+00   5.4851589e+03
 8.7290201e+00   5.4716458e+03
 8.7336998e+00   5.4540647e+03
 8.7383804e+00   5.4395035e+03
 8.7430601e+00   5.4300181e+03
 8.7477398e+00   5.3840298e+03
 8.7524204e+00   5.3962378e+03
 8.7571001e+00   5.3720725e+03
 8.7617798e+00   5.3623894e+03
 8.7664604e+00   5.3524890e+03
 8.7711401e+00   5.3334188e+03
 8.7758198e+00   5.3250953e+03
 8.7805004e+00   5.3091950e+03
 8.7851801e+00   5.2996867e+03
 8.7898598e+00   5.2986995e+03
 8.7945404e+00   5.2940961e+03
 8.7992201e+00   5.2753834e+03
 8.8038998e+00   5.2855840e+03
 8.8085804e+00   5.2778788e+03
 8.8132601e+00   5.2807188e+03
 8.8179398e+00   5.2678863e+03
 8.8226204e+00   5.2723943e+03
 8.8273001e+00   5.2552820e+03
 8.8319798e+00   5.3168391e+03
 8.8366604e+00   5.3267654e+03
 8.8413401e+00   5.4414607e+03
 8.8460197e+00   5.6135380e+03
 8.8507004e+00   5.8697548e+03
 8.8553801e+00   6.0128106e+03
 8.8600597e+00   6.5874395e+03
 8.8647404e+00   6.0963914e+03
 8.8694201e+00   6.9442692e+03
 8.8740997e+00   6.6293979e+03
 8.8787804e+00   5.9715350e+03
 8.8834600e+00   6.5632319e+03
 8.8881397e+00   5.8662556e+03
 8.8928204e+00   5.4783208e+03
 8.8975000e+00   5.4755762e+03
 8.9021797e+00   5.2262632e+03
 8.9068604e+00   5.1605249e+03
 8.9115400e+00   5.1465109e+03
 8.9162197e+00   5.0945349e+03
 8.9209003e+00   5.0938626e+03
 8.9255800e+00   5.0825865e+03
 8.9302597e+00   5.0570192e+03
 8.9349403e+00   5.0554405e+03
 8.9396200e+00   5.0391048e+03
 8.9442997e+00   5.0443848e+03
 8.9489803e+00   5.0275033e+03
 8.9536600e+00   5.0510752e+03
 8.9583397e+00   5.0319666e+03
 8.9630203e+00   5.0269034e+03
 8.9677000e+00   5.0254691e+03
 8.9723797e+00   5.0359413e+03
 8.9770603e+00   5.0313782e+03
 8.9817400e+00   5.0299418e+03
 8.9864197e+00   5.0237642e+03
 8.9911003e+00   5.0295852e+03
 8.9957800e+00   5.0187795e+03
 9.0004597e+00   5.0183389e+03
 9.0051403e+00   5.0260696e+03
 9.0098200e+00   5.0061306e+03
 9.0144997e+00   5.0058309e+03
 9.0191803e+00   5.0032932e+03
 9.0238600e+00   4.9917486e+03
 9.0285397e+00   4.9863225e+03
 9.0332203e+00   4.9809745e+03
 9.0379000e+00   4.9888103e+03
 9.0425797e+00   4.9791307e+03
 9.0472603e+00   4.9774659e+03
 9.0519400e+00   4.9844652e+03
 9.0566196e+00   4.9634827e+03
 9.0613003e+00   4.9723521e+03
 9.0659800e+00   4.9629055e+03
 9.0706596e+00   4.9682495e+03
 9.0753403e+00   4.9604807e+03
 9.0800200e+00   4.9637795e+03
 9.0846996e+00   4.9587059e+03
 9.0893803e+00   4.9601054e+03
 9.0940599e+00   4.9585547e+03
 9.0987396e+00   4.9809185e+03
 9.1034203e+00   4.9693804e+03
 9.1080999e+00   4.9720725e+03
 9.1127796e+00   4.9826797e+03
 9.1174603e+00   4.9891697e+03
 9.1221399e+00   4.9940118e+03
 9.1268196e+00   4.9864673e+03
 9.1315002e+00   5.0105164e+03
 9.1361799e+00   5.0058181e+03
 9.1408596e+00   5.0220932e+03
 9.1455402e+00   5.0178990e+03
 9.1502199e+00   5.0309487e+03
 9.1548996e+00   5.0347449e+03
 9.1595802e+00   5.0574985e+03
 9.1642599e+00   5.0603430e+03
 9.1689396e+00   5.0823489e+03
 9.1736202e+00   5.0902475e+03
 9.1782999e+00   5.0984535e+03
 9.1829796e+00   5.1246271e+03
 9.1876602e+00   5.1218574e+03
 9.1923399e+00   5.1510262e+03
 9.1970196e+00   5.1510664e+03
 9.2017002e+00   5.1842304e+03
 9.2063799e+00   5.1856838e+03
 9.2110596e+00   5.2100015e+03
 9.2157402e+00   5.2255474e+03
 9.2204199e+00   5.2261172e+03
 9.2250996e+00   5.2390651e+03
 9.2297802e+00   5.2591030e+03
 9.2344599e+00   5.2572809e+03
 9.2391396e+00   5.2856240e+03
 9.2438202e+00   5.2931659e+03
 9.2484999e+00   5.3047999e+03
 9.2531796e+00   5.3273865e+03
 9.2578602e+00   5.3334979e+03
 9.2625399e+00   5.3612323e+03
 9.2672195e+00   5.3783845e+03
 9.2719002e+00   5.4058316e+03
 9.2765799e+00   5.4276699e+03
 9.2812595e+00   5.4513246e+03
 9.2859402e+00   5.4776153e+03
 9.2906199e+00   5.5094935e+03
 9.2952995e+00   5.5325631e+03
 9.2999802e+00   5.5355138e+03
 9.3046598e+00   5.5649576e+03
 9.3093395e+00   5.5910433e+03
 9.3140202e+00   5.6175304e+03
 9.3186998e+00   5.6328273e+03
 9.3233805e+00   5.6515743e+03
 9.3280602e+00   5.6749804e+03
 9.3327398e+00   5.6936402e+03
 9.3374205e+00   5.6908979e+03
 9.3421001e+00   5.6977530e+03
 9.3467798e+00   5.6830894e+03
 9.3514605e+00   5.6993535e+03
 9.3561401e+00   5.6740035e+03
 9.3608198e+00   5.6541904e+03
 9.3655005e+00   5.6466385e+03
 9.3701801e+00   5.6048315e+03
 9.3748598e+00   5.5848033e+03
 9.3795404e+00   5.5594560e+03
 9.3842201e+00   5.4993356e+03
 9.3888998e+00   5.4652146e+03
 9.3935804e+00   5.4332418e+03
 9.3982601e+00   5.3883781e+03
 9.4029398e+00   5.3567620e+03
 9.4076204e+00   5.3237412e+03
 9.4123001e+00   5.2957442e+03
 9.4169798e+00   5.2729609e+03
 9.4216604e+00   5.2372136e+03
 9.4263401e+00   5.2245055e+03
 9.4310198e+00   5.1963521e+03
 9.4357004e+00   5.1648322e+03
 9.4403801e+00   5.1585824e+03
 9.4450598e+00   5.1375686e+03
 9.4497404e+00   5.1395664e+03
 9.4544201e+00   5.1126253e+03
 9.4590998e+00   5.1101062e+03
 9.4637804e+00   5.1178247e+03
 9.4684601e+00   5.1004787e+03
 9.4731398e+00   5.1053657e+03
 9.4778204e+00   5.1137188e+03
 9.4825001e+00   5.1145789e+03
 9.4871798e+00   5.1152823e+03
 9.4918604e+00   5.1175451e+03
 9.4965401e+00   5.1148911e+03
 9.5012197e+00   5.1310863e+03
 9.5059004e+00   5.1241393e+03
 9.5105801e+00   5.1343748e+03
 9.5152597e+00   5.1384461e+03
 9.5199404e+00   5.1390752e+03
 9.5246201e+00   5.1379706e+03
 9.5292997e+00   5.1289800e+03
 9.5339804e+00   5.1524423e+03
 9.5386600e+00   5.1526058e+03
 9.5433397e+00   5.1551524e+03
 9.5480204e+00   5.1699308e+03
 9.5527000e+00   5.1937102e+03
 9.5573797e+00   5.1857911e+03
 9.5620604e+00   5.2114168e+03
 9.5667400e+00   5.2185923e+03
 9.5714197e+00   5.2258921e+03
 9.5761003e+00   5.2415908e+03
 9.5807800e+00   5.2516279e+03
 9.5854597e+00   5.2740203e+03
 9.5901403e+00   5.2965442e+03
 9.5948200e+00   5.3104148e+03
 9.5994997e+00   5.3343761e+03
 9.6041803e+00   5.3459608e+03
 9.6088600e+00   5.3606237e+03
 9.6135397e+00   5.3682781e+03
 9.6182203e+00   5.3819483e+03
 9.6229000e+00   5.3881082e+03
 9.6275797e+00   5.4012409e+03
 9.6322603e+00   5.4084380e+03
 9.6369400e+00   5.4010757e+03
 9.6416197e+00   5.4213086e+03
 9.6463003e+00   5.4186642e+03
 9.6509800e+00   5.4296270e+03
 9.6556597e+00   5.4426455e+03
 9.6603403e+00   5.4619327e+03
 9.6650200e+00   5.4774475e+03
 9.6696997e+00   5.4938077e+03
 9.6743803e+00   5.5184657e+03
 9.6790600e+00   5.5668603e+03
 9.6837397e+00   5.6080241e+03
 9.6884203e+00   5.7004335e+03
 9.6931000e+00   5.7123299e+03
 9.6977797e+00   5.7970482e+03
 9.7024603e+00   6.2372457e+03
 9.7071400e+00   6.3552931e+03
 9.7118196e+00   6.2603817e+03
 9.7165003e+00   6.7907825e+03
 9.7211800e+00   6.3711895e+03
 9.7258596e+00   6.2836147e+03
 9.7305403e+00   5.8791341e+03
 9.7352200e+00   5.8641053e+03
 9.7398996e+00   5.6394171e+03
 9.7445803e+00   5.4755956e+03
 9.7492599e+00   5.3859982e+03
 9.7539396e+00   5.3542553e+03
 9.7586203e+00   5.2599658e+03
 9.7632999e+00   5.2306025e+03
 9.7679796e+00   5.2053457e+03
 9.7726603e+00   5.1950922e+03
 9.7773399e+00   5.2030361e+03
 9.7820196e+00   5.1808156e+03
 9.7867002e+00   5.2025079e+03
 9.7913799e+00   5.2081588e+03
 9.7960596e+00   5.2105669e+03
 9.8007402e+00   5.2325858e+03
 9.8054199e+00   5.2725158e+03
 9.8100996e+00   5.3222816e+03
 9.8147802e+00   5.3958085e+03
 9.8194599e+00   5.5296501e+03
 9.8241396e+00   5.7132294e+03
 9.8288202e+00   6.0309763e+03
 9.8334999e+00   6.5296759e+03
 9.8381796e+00   7.2812733e+03
 9.8428602e+00   8.3102605e+03
 9.8475399e+00   9.7943030e+03
 9.8522196e+00   1.1040841e+04
 9.8569002e+00   1.2531601e+04
 9.8615799e+00   1.2939529e+04
 9.8662596e+00   1.3076996e+04
 9.8709402e+00   1.2086153e+04
 9.8756199e+00   1.1068469e+04
 9.8802996e+00   9.4620490e+03
 9.8849802e+00   8.2652889e+03
 9.8896599e+00   7.2248429e+03
 9.8943396e+00   6.5498716e+03
 9.8990202e+00   6.0821009e+03
 9.9036999e+00   5.7724357e+03
 9.9083796e+00   5.6122104e+03
 9.9130602e+00   5.4735002e+03
 9.9177399e+00   5.4268070e+03
 9.9224195e+00   5.3808518e+03
 9.9271002e+00   5.3516028e+03
 9.9317799e+00   5.3371463e+03
 9.9364595e+00   5.3335125e+03
 9.9411402e+00   5.3203676e+03
 9.9458199e+00   5.3362829e+03
 9.9504995e+00   5.3303998e+03
 9.9551802e+00   5.3190480e+03
 9.9598598e+00   5.3229874e+03
 9.9645395e+00   5.3429456e+03
 9.9692202e+00   5.3265333e+03
 9.9738998e+00   5.3351023e+03
 9.9785805e+00   5.3243747e+03
 9.9832602e+00   5.3423090e+03
 9.9879398e+00   5.3511372e+03
 9.9926205e+00   5.3469008e+03
 9.9973001e+00   5.3513823e+03
 1.0001980e+01   5.3490533e+03
 1.0006660e+01   5.3321139e+03
 1.0011340e+01   5.3297585e+03
 1.0016020e+01   5.3193095e+03
 1.0020700e+01   5.3192747e+03
 1.0025380e+01   5.3049692e+03
 1.0030060e+01   5.2914002e+03
 1.0034740e+01   5.2818315e+03
 1.0039420e+01   5.2668426e+03
 1.0044100e+01   5.2537533e+03
 1.0048780e+01   5.2561553e+03
 1.0053460e+01   5.2313866e+03
 1.0058140e+01   5.2253898e+03
 1.0062820e+01   5.2246264e+03
 1.0067500e+01   5.2249376e+03
 1.0072180e+01   5.2086321e+03
 1.0076860e+01   5.2071723e+03
 1.0081540e+01   5.1951571e+03
 1.0086220e+01   5.1949055e+03
 1.0090900e+01   5.1885308e+03
 1.0095580e+01   5.1918140e+03
 1.0100260e+01   5.1901283e+03
 1.0104940e+01   5.1964845e+03
 1.0109620e+01   5.1935325e+03
 1.0114300e+01   5.1877425e+03
 1.0118980e+01   5.2048986e+03
 1.0123660e+01   5.1947163e+03
 1.0128340e+01   5.2017194e+03
 1.0133020e+01   5.2097831e+03
 1.0137700e+01   5.2205842e+03
 1.0142380e+01   5.2188498e+03
 1.0147060e+01   5.2343284e+03
 1.0151740e+01   5.2443924e+03
 1.0156420e+01   5.2625770e+03
 1.0161100e+01   5.2600683e+03
 1.0165780e+01   5.2852792e+03
 1.0170460e+01   5.3098345e+03
 1.0175140e+01   5.3306706e+03
 1.0179820e+01   5.3542740e+03
 1.0184500e+01   5.3687556e+03
 1.0189180e+01   5.3870168e+03
 1.0193860e+01   5.4434480e+03
 1.0198540e+01   5.4672714e+03
 1.0203220e+01   5.4920823e+03
 1.0207900e+01   5.5338337e+03
 1.0212580e+01   5.5487321e+03
 1.0217260e+01   5.5967857e+03
 1.0221940e+01   5.6189819e+03
 1.0226620e+01   5.6268836e+03
 1.0231300e+01   5.6804426e+03
 1.0235980e+01   5.6921067e+03
 1.0240660e+01   5.7013140e+03
 1.0245340e+01   5.7116881e+03
 1.0250020e+01   5.7130809e+03
 1.0254700e+01   5.7489315e+03
 1.0259380e+01   5.7687396e+03
 1.0264060e+01   5.8229404e+03
 1.0268740e+01   5.9483831e+03
 1.0273420e+01   6.1140553e+03
 1.0278100e+01   6.4199654e+03
 1.0282780e+01   6.8038708e+03
 1.0287460e+01   7.3240062e+03
 1.0292140e+01   7.9977216e+03
 1.0296820e+01   8.4488773e+03
 1.0301500e+01   8.7121322e+03
 1.0306180e+01   8.4681488e+03
 1.0310860e+01   8.2948835e+03
 1.0315540e+01   7.7024386e+03
 1.0320220e+01   6.9824740e+03
 1.0324900e+01   6.5047695e+03
 1.0329580e+01   6.0831942e+03
 1.0334260e+01   5.7656349e+03
 1.0338940e+01   5.5606955e+03
 1.0343620e+01   5.4472048e+03
 1.0348300e+01   5.3582258e+03
 1.0352980e+01   5.3324803e+03
 1.0357660e+01   5.2967985e+03
 1.0362340e+01   5.2568644e+03
 1.0367020e+01   5.2914485e+03
 1.0371700e+01   5.2495601e+03
 1.0376380e+01   5.2544064e+03
 1.0381060e+01   5.2694370e+03
 1.0385740e+01   5.2660452e+03
 1.0390420e+01   5.2856784e+03
 1.0395100e+01   5.2671136e+03
 1.0399780e+01   5.2666651e+03
 1.0404460e+01   5.3139184e+03
 1.0409140e+01   5.3009693e+03
 1.0413820e+01   5.3023042e+03
 1.0418500e+01   5.3348885e+03
 1.0423180e+01   5.3250713e+03
 1.0427860e+01   5.3657293e+03
 1.0432540e+01   5.3526480e+03
 1.0437220e+01   5.3756512e+03
 1.0441900e+01   5.4382505e+03
 1.0446580e+01   5.4202914e+03
 1.0451260e+01   5.4556393e+03
 1.0455940e+01   5.4907645e+03
 1.0460620e+01   5.4985415e+03
 1.0465300e+01   5.5509034e+03
 1.0469980e+01   5.6383327e+03
 1.0474660e+01   5.6918018e+03
 1.0479340e+01   5.8801973e+03
 1.0484020e+01   5.8221988e+03
 1.0488700e+01   5.9235842e+03
 1.0493380e+01   6.2092073e+03
 1.0498060e+01   6.3315966e+03
 1.0502740e+01   6.1840405e+03
 1.0507420e+01   6.4634888e+03
 1.0512100e+01   6.2756426e+03
 1.0516780e+01   6.4933497e+03
 1.0521460e+01   6.0863979e+03
 1.0526140e+01   5.9475940e+03
 1.0530820e+01   5.7576003e+03
 1.0535500e+01   5.5863549e+03
 1.0540180e+01   5.5205296e+03
 1.0544860e+01   5.4535339e+03
 1.0549540e+01   5.3909104e+03
 1.0554220e+01   5.3865543e+03
 1.0558900e+01   5.3239497e+03
 1.0563580e+01   5.3275829e+03
 1.0568260e+01   5.3059149e+03
 1.0572940e+01   5.2621180e+03
 1.0577620e+01   5.2779276e+03
 1.0582300e+01   5.2249852e+03
 1.0586980e+01   5.2257111e+03
 1.0591660e+01   5.2184637e+03
 1.0596340e+01   5.1802724e+03
 1.0601020e+01   5.1881405e+03
 1.0605700e+01   5.1731282e+03
 1.0610380e+01   5.1474494e+03
 1.0615060e+01   5.1556874e+03
 1.0619740e+01   5.1287061e+03
 1.0624420e+01   5.1166948e+03
 1.0629100e+01   5.1273716e+03
 1.0633780e+01   5.1029692e+03
 1.0638460e+01   5.0985508e+03
 1.0643140e+01   5.0900884e+03
 1.0647820e+01   5.0779968e+03
 1.0652500e+01   5.0831039e+03
 1.0657180e+01   5.0777345e+03
 1.0661860e+01   5.0666358e+03
 1.0666540e+01   5.0675764e+03
 1.0671220e+01   5.0530735e+03
 1.0675900e+01   5.0607880e+03
 1.0680580e+01   5.0606934e+03
 1.0685260e+01   5.0532439e+03
 1.0689940e+01   5.0697015e+03
 1.0694620e+01   5.0613331e+03
 1.0699300e+01   5.0685302e+03
 1.0703980e+01   5.0684868e+03
 1.0708660e+01   5.0743950e+03
 1.0713340e+01   5.0717637e+03
 1.0718020e+01   5.0863035e+03
 1.0722700e+01   5.0835093e+03
 1.0727380e+01   5.1138495e+03
 1.0732060e+01   5.1200753e+03
 1.0736740e+01   5.1351522e+03
 1.0741420e+01   5.1297634e+03
 1.0746100e+01   5.1420076e+03
 1.0750780e+01   5.1564403e+03
 1.0755460e+01   5.1505691e+03
 1.0760140e+01   5.1486221e+03
 1.0764820e+01   5.1568003e+03
 1.0769500e+01   5.1641348e+03
 1.0774180e+01   5.1541727e+03
 1.0778860e+01   5.1659871e+03
 1.0783540e+01   5.1470709e+03
 1.0788220e+01   5.1567506e+03
 1.0792900e+01   5.1345768e+03
 1.0797580e+01   5.1494268e+03
 1.0802260e+01   5.1307409e+03
 1.0806940e+01   5.1272470e+03
 1.0811620e+01   5.1246192e+03
 1.0816300e+01   5.1230713e+03
 1.0820980e+01   5.1210904e+03
 1.0825660e+01   5.1196301e+03
 1.0830340e+01   5.1051426e+03
 1.0835020e+01   5.0974190e+03
 1.0839700e+01   5.0878330e+03
 1.0844380e+01   5.0859899e+03
 1.0849060e+01   5.0877377e+03
 1.0853740e+01   5.0650808e+03
 1.0858420e+01   5.0470923e+03
 1.0863100e+01   5.0508814e+03
 1.0867780e+01   5.0407101e+03
 1.0872460e+01   5.0270586e+03
 1.0877140e+01   5.0113418e+03
 1.0881820e+01   5.0015615e+03
 1.0886500e+01   4.9775392e+03
 1.0891180e+01   4.9655062e+03
 1.0895860e+01   4.9534905e+03
 1.0900540e+01   4.9535460e+03
 1.0905220e+01   4.9329346e+03
 1.0909900e+01   4.9260885e+03
 1.0914580e+01   4.9080055e+03
 1.0919260e+01   4.8993229e+03
 1.0923940e+01   4.8930738e+03
 1.0928620e+01   4.8798192e+03
 1.0933300e+01   4.8790256e+03
 1.0937980e+01   4.8700819e+03
 1.0942660e+01   4.8564956e+03
 1.0947340e+01   4.8486076e+03
 1.0952020e+01   4.8406081e+03
 1.0956700e+01   4.8316978e+03
 1.0961380e+01   4.8392258e+03
 1.0966060e+01   4.8150229e+03
 1.0970740e+01   4.8281281e+03
 1.0975420e+01   4.8020691e+03
 1.0980100e+01   4.7968674e+03
 1.0984780e+01   4.7939129e+03
 1.0989460e+01   4.7970133e+03
 1.0994140e+01   4.7901510e+03
 1.0998820e+01   4.8025374e+03
 1.1003500e+01   4.7730850e+03
 1.1008180e+01   4.7816065e+03
 1.1012860e+01   4.7968711e+03
 1.1017540e+01   4.7694511e+03
 1.1022220e+01   4.7871763e+03
 1.1026900e+01   4.7724549e+03
 1.1031580e+01   4.7766957e+03
 1.1036260e+01   4.7838155e+03
 1.1040940e+01   4.7892241e+03
 1.1045620e+01   4.7854025e+03
 1.1050300e+01   4.7929223e+03
 1.1054980e+01   4.7887558e+03
 1.1059660e+01   4.8080227e+03
 1.1064340e+01   4.7981583e+03
 1.1069020e+01   4.7951111e+03
 1.1073700e+01   4.8117199e+03
 1.1078380e+01   4.8037928e+03
 1.1083060e+01   4.8234070e+03
 1.1087740e+01   4.8214648e+03
 1.1092420e+01   4.8366814e+03
 1.1097100e+01   4.8496241e+03
 1.1101780e+01   4.8412830e+03
 1.1106460e+01   4.8679270e+03
 1.1111140e+01   4.8799253e+03
 1.1115820e+01   4.8855851e+03
 1.1120500e+01   4.9055313e+03
 1.1125180e+01   4.9096712e+03
 1.1129860e+01   4.9280370e+03
 1.1134540e+01   4.9423140e+03
 1.1139220e+01   4.9310245e+03
 1.1143900e+01   4.9591940e+03
 1.1148580e+01   4.9478445e+03
 1.1153260e+01   4.9621011e+03
 1.1157940e+01   4.9680454e+03
 1.1162620e+01   4.9583764e+03
 1.1167300e+01   4.9449121e+03
 1.1171980e+01   4.9495714e+03
 1.1176660e+01   4.9366559e+03
 1.1181340e+01   4.9442637e+03
 1.1186020e+01   4.9353484e+03
 1.1190700e+01   4.9228843e+03
 1.1195380e+01   4.9486275e+03
 1.1200060e+01   4.8945768e+03
 1.1204740e+01   4.8925182e+03
 1.1209420e+01   4.9950568e+03
 1.1214100e+01   4.8827553e+03
 1.1218780e+01   4.9874855e+03
 1.1223460e+01   4.8846034e+03
 1.1228140e+01   4.8592958e+03
 1.1232820e+01   4.9026021e+03
 1.1237500e+01   4.8598729e+03
 1.1242180e+01   4.8205314e+03
 1.1246860e+01   4.8013904e+03
 1.1251540e+01   4.7594353e+03
 1.1256220e+01   4.7609449e+03
 1.1260900e+01   4.7380420e+03
 1.1265580e+01   4.7250596e+03
 1.1270260e+01   4.7103387e+03
 1.1274940e+01   4.6886306e+03
 1.1279620e+01   4.6849191e+03
 1.1284300e+01   4.6662726e+03
 1.1288980e+01   4.6577469e+03
 1.1293660e+01   4.6554123e+03
 1.1298340e+01   4.6322708e+03
 1.1303020e+01   4.6297426e+03
 1.1307700e+01   4.6237487e+03
 1.1312380e+01   4.6065211e+03
 1.1317060e+01   4.6072523e+03
 1.1321740e+01   4.5948527e+03
 1.1326420e+01   4.6023026e+03
 1.1331100e+01   4.5939429e+03
 1.1335780e+01   4.5707672e+03
 1.1340460e+01   4.5790913e+03
 1.1345140e+01   4.5725404e+03
 1.1349820e+01   4.5534504e+03
 1.1354500e+01   4.5704984e+03
 1.1359180e+01   4.5449557e+03
 1.1363860e+01   4.5477061e+03
 1.1368540e+01   4.5397917e+03
 1.1373220e+01   4.5238384e+03
 1.1377900e+01   4.5340753e+03
 1.1382580e+01   4.5290326e+03
 1.1387260e+01   4.5262028e+03
 1.1391940e+01   4.5292475e+03
 1.1396620e+01   4.5121172e+03
 1.1401300e+01   4.5189303e+03
 1.1405980e+01   4.5206300e+03
 1.1410660e+01   4.5034324e+03
 1.1415340e+01   4.5044954e+03
 1.1420020e+01   4.4996432e+03
 1.1424700e+01   4.4978547e+03
 1.1429380e+01   4.4979830e+03
 1.1434060e+01   4.4784506e+03
 1.1438740e+01   4.4863099e+03
 1.1443420e+01   4.4772945e+03
 1.1448100e+01   4.4758133e+03
 1.1452780e+01   4.4846834e+03
 1.1457460e+01   4.4785518e+03
 1.1462140e+01   4.4736744e+03
 1.1466820e+01   4.4846329e+03
 1.1471500e+01   4.4682459e+03
 1.1476180e+01   4.4813313e+03
 1.1480860e+01   4.4697383e+03
 1.1485540e+01   4.4623913e+03
 1.1490220e+01   4.4661418e+03
 1.1494900e+01   4.4574624e+03
 1.1499580e+01   4.4595725e+03
 1.1504260e+01   4.4607425e+03
 1.1508940e+01   4.4569532e+03
 1.1513620e+01   4.4572637e+03
 1.1518300e+01   4.4479720e+03
 1.1522980e+01   4.4474578e+03
 1.1527660e+01   4.4489432e+03
 1.1532340e+01   4.4321025e+03
 1.1537020e+01   4.4386225e+03
 1.1541700e+01   4.4289902e+03
 1.1546380e+01   4.4215161e+03
 1.1551060e+01   4.4226815e+03
 1.1555740e+01   4.4152676e+03
 1.1560420e+01   4.4212510e+03
 1.1565100e+01   4.4146994e+03
 1.1569780e+01   4.4144140e+03
 1.1574460e+01   4.4197236e+03
 1.1579140e+01   4.4123021e+03
 1.1583820e+01   4.4048934e+03
 1.1588500e+01   4.4036839e+03
 1.1593180e+01   4.4082975e+03
 1.1597860e+01   4.4063979e+03
 1.1602540e+01   4.4037761e+03
 1.1607220e+01   4.4069188e+03
 1.1611900e+01   4.4032699e+03
 1.1616580e+01   4.4028782e+03
 1.1621260e+01   4.3934826e+03
 1.1625940e+01   4.3960722e+03
 1.1630620e+01   4.3898543e+03
 1.1635300e+01   4.3997963e+03
 1.1639980e+01   4.3881915e+03
 1.1644660e+01   4.3874670e+03
 1.1649340e+01   4.3952155e+03
 1.1654020e+01   4.3878109e+03
 1.1658700e+01   4.3867517e+03
 1.1663380e+01   4.3823804e+03
 1.1668060e+01   4.3736866e+03
 1.1672740e+01   4.3793154e+03
 1.1677420e+01   4.3605181e+03
 1.1682100e+01   4.3643222e+03
 1.1686780e+01   4.3588561e+03
 1.1691460e+01   4.3531526e+03
 1.1696140e+01   4.3633183e+03
 1.1700820e+01   4.3587316e+03
 1.1705500e+01   4.3537355e+03
 1.1710180e+01   4.3534241e+03
 1.1714860e+01   4.3463060e+03
 1.1719540e+01   4.3434644e+03
 1.1724220e+01   4.3460455e+03
 1.1728900e+01   4.3376154e+03
 1.1733580e+01   4.3557538e+03
 1.1738260e+01   4.3289560e+03
 1.1742940e+01   4.3417480e+03
 1.1747620e+01   4.3356946e+03
 1.1752300e+01   4.3350906e+03
 1.1756980e+01   4.3400653e+03
 1.1761660e+01   4.3410897e+03
 1.1766340e+01   4.3477430e+03
 1.1771020e+01   4.3504928e+03
 1.1775700e+01   4.3438439e+03
 1.1780380e+01   4.3433758e+03
 1.1785060e+01   4.3462429e+03
 1.1789740e+01   4.3376745e+03
 1.1794420e+01   4.3574789e+03
 1.1799100e+01   4.3408391e+03
 1.1803780e+01   4.3444471e+03
 1.1808460e+01   4.3529511e+03
 1.1813140e+01   4.3516548e+03
 1.1817820e+01   4.3639490e+03
 1.1822500e+01   4.3746496e+03
 1.1827180e+01   4.3613133e+03
 1.1831860e+01   4.3771395e+03
 1.1836540e+01   4.3774986e+03
 1.1841220e+01   4.3920197e+03
 1.1845900e+01   4.4072612e+03
 1.1850580e+01   4.3974791e+03
 1.1855260e+01   4.4265146e+03
 1.1859940e+01   4.4373697e+03
 1.1864620e+01   4.4530556e+03
 1.1869300e+01   4.4989906e+03
 1.1873980e+01   4.5344080e+03
 1.1878660e+01   4.6145674e+03
 1.1883340e+01   4.7016179e+03
 1.1888020e+01   4.7934734e+03
 1.1892700e+01   4.9447598e+03
 1.1897380e+01   5.0582903e+03
 1.1902060e+01   5.1295143e+03
 1.1906740e+01   5.1325828e+03
 1.1911420e+01   5.1001296e+03
 1.1916100e+01   5.0484557e+03
 1.1920780e+01   4.9391141e+03
 1.1925460e+01   4.8850844e+03
 1.1930140e+01   4.7606385e+03
 1.1934820e+01   4.7159805e+03
 1.1939500e+01   4.6700149e+03
 1.1944180e+01   4.6448005e+03
 1.1948860e+01   4.6276109e+03
 1.1953540e+01   4.6247807e+03
 1.1958220e+01   4.6308671e+03
 1.1962900e+01   4.6199124e+03
 1.1967580e+01   4.6386555e+03
 1.1972260e+01   4.6301546e+03
 1.1976940e+01   4.6346550e+03
 1.1981620e+01   4.6273466e+03
 1.1986300e+01   4.6153277e+03
 1.1990980e+01   4.6237810e+03
 1.1995660e+01   4.6141541e+03
 1.2000340e+01   4.6092816e+03
 1.2005020e+01   4.5923764e+03
 1.2009700e+01   4.5827961e+03
 1.2014380e+01   4.5643969e+03
 1.2019060e+01   4.5640029e+03
 1.2023740e+01   4.5452660e+03
 1.2028420e+01   4.5415173e+03
 1.2033100e+01   4.5097643e+03
 1.2037780e+01   4.5095975e+03
 1.2042460e+01   4.4932870e+03
 1.2047140e+01   4.4676659e+03
 1.2051820e+01   4.4540217e+03
 1.2056500e+01   4.4445805e+03
 1.2061180e+01   4.4363202e+03
 1.2065860e+01   4.4264475e+03
 1.2070540e+01   4.4135276e+03
 1.2075220e+01   4.3968554e+03
 1.2079900e+01   4.3959554e+03
 1.2084580e+01   4.3779657e+03
 1.2089260e+01   4.3768095e+03
 1.2093940e+01   4.3560406e+03
 1.2098620e+01   4.3566978e+03
 1.2103300e+01   4.3400821e+03
 1.2107980e+01   4.3342725e+03
 1.2112660e+01   4.3304891e+03
 1.2117340e+01   4.3148075e+03
 1.2122020e+01   4.3076939e+03
 1.2126700e+01   4.2940728e+03
 1.2131380e+01   4.2713375e+03
 1.2136060e+01   4.2682937e+03
 1.2140740e+01   4.2610573e+03
 1.2145420e+01   4.2404112e+03
 1.2150100e+01   4.2434716e+03
 1.2154780e+01   4.2214272e+03
 1.2159460e+01   4.2128277e+03
 1.2164140e+01   4.1998369e+03
 1.2168820e+01   4.1970641e+03
 1.2173500e+01   4.1858082e+03
 1.2178180e+01   4.1771542e+03
 1.2182860e+01   4.1706712e+03
 1.2187540e+01   4.1590067e+03
 1.2192220e+01   4.1473477e+03
 1.2196900e+01   4.1530128e+03
 1.2201580e+01   4.1415626e+03
 1.2206260e+01   4.1341493e+03
 1.2210940e+01   4.1335483e+03
 1.2215620e+01   4.1304198e+03
 1.2220300e+01   4.1317286e+03
 1.2224980e+01   4.1224620e+03
 1.2229660e+01   4.1178029e+03
 1.2234340e+01   4.1238187e+03
 1.2239020e+01   4.1056898e+03
 1.2243700e+01   4.1045342e+03
 1.2248380e+01   4.1062098e+03
 1.2253060e+01   4.1062234e+03
 1.2257740e+01   4.0926245e+03
 1.2262420e+01   4.1072028e+03
 1.2267100e+01   4.0974981e+03
 1.2271780e+01   4.0933574e+03
 1.2276460e+01   4.0990913e+03
 1.2281140e+01   4.0871923e+03
 1.2285820e+01   4.0911864e+03
 1.2290500e+01   4.0819221e+03
 1.2295180e+01   4.0871830e+03
 1.2299860e+01   4.0837488e+03
 1.2304540e+01   4.0852242e+03
 1.2309220e+01   4.0842838e+03
 1.2313900e+01   4.0871918e+03
 1.2318580e+01   4.0814538e+03
 1.2323260e+01   4.0921099e+03
 1.2327940e+01   4.0809076e+03
 1.2332620e+01   4.0825580e+03
 1.2337300e+01   4.0850518e+03
 1.2341980e+01   4.0945884e+03
 1.2346660e+01   4.0914012e+03
 1.2351340e+01   4.0923770e+03
 1.2356020e+01   4.1072123e+03
 1.2360700e+01   4.1016486e+03
 1.2365380e+01   4.1101366e+03
 1.2370060e+01   4.1193150e+03
 1.2374740e+01   4.1166892e+03
 1.2379420e+01   4.1193073e+03
 1.2384100e+01   4.1340096e+03
 1.2388780e+01   4.1223266e+03
 1.2393460e+01   4.1388312e+03
 1.2398140e+01   4.1355973e+03
 1.2402820e+01   4.1333205e+03
 1.2407500e+01   4.1446978e+03
 1.2412180e+01   4.1360275e+03
 1.2416860e+01   4.1461148e+03
 1.2421540e+01   4.1444391e+03
 1.2426220e+01   4.1427635e+03
 1.2430900e+01   4.1448552e+03
 1.2435580e+01   4.1343781e+03
 1.2440260e+01   4.1481647e+03
 1.2444940e+01   4.1338017e+03
 1.2449620e+01   4.1331956e+03
 1.2454300e+01   4.1432543e+03
 1.2458980e+01   4.1331379e+03
 1.2463660e+01   4.1299177e+03
 1.2468340e+01   4.1412677e+03
 1.2473020e+01   4.1272483e+03
 1.2477700e+01   4.1289795e+03
 1.2482380e+01   4.1284273e+03
 1.2487060e+01   4.1184771e+03
 1.2491740e+01   4.1144959e+03
 1.2496420e+01   4.1110068e+03
 1.2501100e+01   4.0990965e+03
 1.2505780e+01   4.0992740e+03
 1.2510460e+01   4.0982235e+03
 1.2515140e+01   4.1013025e+03
 1.2519820e+01   4.0907592e+03
 1.2524500e+01   4.0872783e+03
 1.2529180e+01   4.0829529e+03
 1.2533860e+01   4.0866390e+03
 1.2538540e+01   4.0925181e+03
 1.2543220e+01   4.0819121e+03
 1.2547900e+01   4.0909714e+03
 1.2552580e+01   4.0895165e+03
 1.2557260e+01   4.1076379e+03
 1.2561940e+01   4.1327836e+03
 1.2566620e+01   4.0916697e+03
 1.2571300e+01   4.1528996e+03
 1.2575980e+01   4.0966408e+03
 1.2580660e+01   4.0697313e+03
 1.2585340e+01   4.0981578e+03
 1.2590020e+01   4.0818051e+03
 1.2594700e+01   4.0741711e+03
 1.2599380e+01   4.0876706e+03
 1.2604060e+01   4.0833914e+03
 1.2608740e+01   4.0896120e+03
 1.2613420e+01   4.0936419e+03
 1.2618100e+01   4.0964293e+03
 1.2622780e+01   4.1017939e+03
 1.2627460e+01   4.1020981e+03
 1.2632140e+01   4.1230723e+03
 1.2636820e+01   4.1158993e+03
 1.2641500e+01   4.1281081e+03
 1.2646180e+01   4.1428879e+03
 1.2650860e+01   4.1417035e+03
 1.2655540e+01   4.1453987e+03
 1.2660220e+01   4.1675703e+03
 1.2664900e+01   4.1601244e+03
 1.2669580e+01   4.1792085e+03
 1.2674260e+01   4.1872639e+03
 1.2678940e+01   4.1944783e+03
 1.2683620e+01   4.1976094e+03
 1.2688300e+01   4.2161386e+03
 1.2692980e+01   4.2249156e+03
 1.2697660e+01   4.2299610e+03
