MA2b-00007.tif Azm= 0.00
2-Theta Angle (Degrees)
Intensity
       2500
 1.0023400e+00   7.9821882e+03
 1.0070200e+00   8.0179035e+03
 1.0117000e+00   7.9188032e+03
 1.0163800e+00   7.9445485e+03
 1.0210600e+00   7.8675827e+03
 1.0257400e+00   7.8825877e+03
 1.0304199e+00   7.8174526e+03
 1.0351000e+00   7.8063033e+03
 1.0397800e+00   7.7926928e+03
 1.0444601e+00   7.7468444e+03
 1.0491400e+00   7.7209655e+03
 1.0538200e+00   7.7202603e+03
 1.0585001e+00   7.6693057e+03
 1.0631800e+00   7.6823684e+03
 1.0678600e+00   7.6849391e+03
 1.0725400e+00   7.6222632e+03
 1.0772200e+00   7.6120950e+03
 1.0819000e+00   7.5966293e+03
 1.0865800e+00   7.5964770e+03
 1.0912600e+00   7.5543199e+03
 1.0959400e+00   7.5417793e+03
 1.1006200e+00   7.4956769e+03
 1.1052999e+00   7.4857243e+03
 1.1099800e+00   7.4651728e+03
 1.1146600e+00   7.4230453e+03
 1.1193399e+00   7.4348334e+03
 1.1240200e+00   7.4186422e+03
 1.1287000e+00   7.4028093e+03
 1.1333801e+00   7.3827830e+03
 1.1380600e+00   7.3627395e+03
 1.1427400e+00   7.3501689e+03
 1.1474200e+00   7.3099787e+03
 1.1521000e+00   7.3580704e+03
 1.1567800e+00   7.3296084e+03
 1.1614600e+00   7.2976755e+03
 1.1661400e+00   7.3062472e+03
 1.1708200e+00   7.2943731e+03
 1.1755000e+00   7.3169465e+03
 1.1801800e+00   7.2314729e+03
 1.1848600e+00   7.2955911e+03
 1.1895400e+00   7.2552584e+03
 1.1942199e+00   7.3102668e+03
 1.1989000e+00   7.2536472e+03
 1.2035800e+00   7.2425120e+03
 1.2082601e+00   7.2513241e+03
 1.2129400e+00   7.2126832e+03
 1.2176200e+00   7.1848591e+03
 1.2223001e+00   7.2213043e+03
 1.2269800e+00   7.2149644e+03
 1.2316600e+00   7.1890117e+03
 1.2363400e+00   7.1768393e+03
 1.2410200e+00   7.1967458e+03
 1.2457000e+00   7.1814865e+03
 1.2503800e+00   7.1678777e+03
 1.2550600e+00   7.1855471e+03
 1.2597400e+00   7.1813375e+03
 1.2644200e+00   7.1772066e+03
 1.2691000e+00   7.1776907e+03
 1.2737800e+00   7.1542663e+03
 1.2784600e+00   7.1904768e+03
 1.2831399e+00   7.1692646e+03
 1.2878200e+00   7.1871975e+03
 1.2925000e+00   7.1509587e+03
 1.2971801e+00   7.1685345e+03
 1.3018600e+00   7.1689955e+03
 1.3065400e+00   7.1702339e+03
 1.3112200e+00   7.1583965e+03
 1.3159000e+00   7.1907793e+03
 1.3205800e+00   7.1863024e+03
 1.3252600e+00   7.1911213e+03
 1.3299400e+00   7.1962450e+03
 1.3346200e+00   7.2069928e+03
 1.3393000e+00   7.2241158e+03
 1.3439800e+00   7.2309676e+03
 1.3486600e+00   7.2081579e+03
 1.3533400e+00   7.1784872e+03
 1.3580199e+00   7.2151175e+03
 1.3627000e+00   7.2406650e+03
 1.3673800e+00   7.2545284e+03
 1.3720599e+00   7.2613827e+03
 1.3767400e+00   7.2777357e+03
 1.3814200e+00   7.2743678e+03
 1.3861001e+00   7.3065103e+03
 1.3907800e+00   7.3044789e+03
 1.3954600e+00   7.3243225e+03
 1.4001400e+00   7.3098312e+03
 1.4048200e+00   7.3328987e+03
 1.4095000e+00   7.3428950e+03
 1.4141800e+00   7.3621299e+03
 1.4188600e+00   7.3878170e+03
 1.4235400e+00   7.3949156e+03
 1.4282200e+00   7.4111022e+03
 1.4329000e+00   7.4443298e+03
 1.4375800e+00   7.4473933e+03
 1.4422600e+00   7.4739489e+03
 1.4469399e+00   7.5017925e+03
 1.4516200e+00   7.5467801e+03
 1.4563000e+00   7.5250989e+03
 1.4609801e+00   7.5820214e+03
 1.4656600e+00   7.6364838e+03
 1.4703400e+00   7.6260899e+03
 1.4750201e+00   7.6788882e+03
 1.4797000e+00   7.6828607e+03
 1.4843800e+00   7.6969486e+03
 1.4890600e+00   7.7248236e+03
 1.4937400e+00   7.7299623e+03
 1.4984200e+00   7.7509934e+03
 1.5031000e+00   7.7795167e+03
 1.5077800e+00   7.7883272e+03
 1.5124600e+00   7.8170569e+03
 1.5171400e+00   7.8020562e+03
 1.5218199e+00   7.8419852e+03
 1.5265000e+00   7.8202881e+03
 1.5311800e+00   7.7990176e+03
 1.5358599e+00   7.8138314e+03
 1.5405400e+00   7.8186118e+03
 1.5452200e+00   7.8147128e+03
 1.5499001e+00   7.8202685e+03
 1.5545800e+00   7.7992070e+03
 1.5592600e+00   7.7823540e+03
 1.5639400e+00   7.7698754e+03
 1.5686200e+00   7.7529725e+03
 1.5733000e+00   7.7689267e+03
 1.5779800e+00   7.7553533e+03
 1.5826600e+00   7.7640456e+03
 1.5873400e+00   7.7556640e+03
 1.5920200e+00   7.7384949e+03
 1.5967000e+00   7.7461561e+03
 1.6013800e+00   7.7304295e+03
 1.6060600e+00   7.7315011e+03
 1.6107399e+00   7.7407016e+03
 1.6154200e+00   7.7408044e+03
 1.6201000e+00   7.7472409e+03
 1.6247801e+00   7.7566741e+03
 1.6294600e+00   7.7357695e+03
 1.6341400e+00   7.7299651e+03
 1.6388201e+00   7.7560028e+03
 1.6435000e+00   7.7321591e+03
 1.6481800e+00   7.7455272e+03
 1.6528600e+00   7.7432731e+03
 1.6575400e+00   7.7196668e+03
 1.6622200e+00   7.7421110e+03
 1.6669000e+00   7.7413829e+03
 1.6715800e+00   7.7589563e+03
 1.6762600e+00   7.7475789e+03
 1.6809400e+00   7.7606446e+03
 1.6856200e+00   7.7639909e+03
 1.6903000e+00   7.7367307e+03
 1.6949800e+00   7.7657149e+03
 1.6996599e+00   7.7894971e+03
 1.7043400e+00   7.7700122e+03
 1.7090200e+00   7.7839336e+03
 1.7137001e+00   7.7477764e+03
 1.7183800e+00   7.8021425e+03
 1.7230600e+00   7.8000057e+03
 1.7277400e+00   7.7836495e+03
 1.7324200e+00   7.8076215e+03
 1.7371000e+00   7.7891775e+03
 1.7417800e+00   7.8033544e+03
 1.7464600e+00   7.7910436e+03
 1.7511400e+00   7.8056584e+03
 1.7558200e+00   7.8368417e+03
 1.7605000e+00   7.8280207e+03
 1.7651800e+00   7.8354154e+03
 1.7698600e+00   7.8557513e+03
 1.7745399e+00   7.8490925e+03
 1.7792200e+00   7.8989579e+03
 1.7839000e+00   7.8750495e+03
 1.7885799e+00   7.8893331e+03
 1.7932600e+00   7.8914900e+03
 1.7979400e+00   7.9318200e+03
 1.8026201e+00   7.9588356e+03
 1.8073000e+00   7.9210010e+03
 1.8119800e+00   7.9687006e+03
 1.8166600e+00   7.9924049e+03
 1.8213400e+00   8.0017706e+03
 1.8260200e+00   7.9980542e+03
 1.8307000e+00   8.0407491e+03
 1.8353800e+00   8.0487026e+03
 1.8400600e+00   8.0704544e+03
 1.8447400e+00   8.0823992e+03
 1.8494200e+00   8.0901801e+03
 1.8541000e+00   8.1162035e+03
 1.8587800e+00   8.1121115e+03
 1.8634599e+00   8.1569467e+03
 1.8681400e+00   8.1729997e+03
 1.8728200e+00   8.1917896e+03
 1.8775001e+00   8.2290469e+03
 1.8821800e+00   8.2439819e+03
 1.8868600e+00   8.2823752e+03
 1.8915401e+00   8.2888697e+03
 1.8962200e+00   8.3150304e+03
 1.9009000e+00   8.3214122e+03
 1.9055800e+00   8.3518370e+03
 1.9102600e+00   8.3750769e+03
 1.9149400e+00   8.3991082e+03
 1.9196200e+00   8.4226811e+03
 1.9243000e+00   8.4772151e+03
 1.9289800e+00   8.4837083e+03
 1.9336600e+00   8.5007164e+03
 1.9383399e+00   8.5319639e+03
 1.9430200e+00   8.5525466e+03
 1.9477000e+00   8.6005861e+03
 1.9523799e+00   8.6076871e+03
 1.9570600e+00   8.6323855e+03
 1.9617400e+00   8.6568527e+03
 1.9664201e+00   8.6869788e+03
 1.9711000e+00   8.6982632e+03
 1.9757800e+00   8.7545126e+03
 1.9804600e+00   8.7673386e+03
 1.9851400e+00   8.7781320e+03
 1.9898200e+00   8.8163049e+03
 1.9945000e+00   8.8524926e+03
 1.9991800e+00   8.8584488e+03
 2.0038600e+00   8.8633961e+03
 2.0085399e+00   8.9242232e+03
 2.0132201e+00   8.9727270e+03
 2.0179000e+00   8.9694408e+03
 2.0225799e+00   8.9923284e+03
 2.0272601e+00   9.0349903e+03
 2.0319400e+00   9.0847097e+03
 2.0366199e+00   9.1142012e+03
 2.0413001e+00   9.1538038e+03
 2.0459800e+00   9.1881752e+03
 2.0506599e+00   9.2301922e+03
 2.0553401e+00   9.2837406e+03
 2.0600200e+00   9.3158840e+03
 2.0646999e+00   9.3729992e+03
 2.0693800e+00   9.4558451e+03
 2.0740600e+00   9.5295982e+03
 2.0787399e+00   9.6316441e+03
 2.0834200e+00   9.7961422e+03
 2.0881000e+00   9.9551260e+03
 2.0927801e+00   1.0245366e+04
 2.0974600e+00   1.0609313e+04
 2.1021399e+00   1.1111542e+04
 2.1068201e+00   1.1785836e+04
 2.1115000e+00   1.2919579e+04
 2.1161799e+00   1.4440721e+04
 2.1208601e+00   1.6615320e+04
 2.1255400e+00   1.9372529e+04
 2.1302199e+00   2.2826791e+04
 2.1349001e+00   2.6321990e+04
 2.1395800e+00   2.9551500e+04
 2.1442599e+00   3.1921350e+04
 2.1489401e+00   3.2992945e+04
 2.1536200e+00   3.2582925e+04
 2.1582999e+00   3.1040957e+04
 2.1629801e+00   2.8610943e+04
 2.1676600e+00   2.5894173e+04
 2.1723399e+00   2.3209331e+04
 2.1770201e+00   2.0841847e+04
 2.1817000e+00   1.8808297e+04
 2.1863799e+00   1.7213496e+04
 2.1910601e+00   1.5854014e+04
 2.1957400e+00   1.4831641e+04
 2.2004199e+00   1.3909340e+04
 2.2051001e+00   1.3267460e+04
 2.2097800e+00   1.2713416e+04
 2.2144599e+00   1.2336161e+04
 2.2191401e+00   1.2023470e+04
 2.2238200e+00   1.1818474e+04
 2.2284999e+00   1.1639825e+04
 2.2331800e+00   1.1530119e+04
 2.2378600e+00   1.1404341e+04
 2.2425399e+00   1.1285620e+04
 2.2472200e+00   1.1161785e+04
 2.2519000e+00   1.1054115e+04
 2.2565801e+00   1.0926773e+04
 2.2612600e+00   1.0815538e+04
 2.2659400e+00   1.0717411e+04
 2.2706201e+00   1.0617257e+04
 2.2753000e+00   1.0577536e+04
 2.2799799e+00   1.0515155e+04
 2.2846601e+00   1.0512411e+04
 2.2893400e+00   1.0500657e+04
 2.2940199e+00   1.0505174e+04
 2.2987001e+00   1.0490904e+04
 2.3033800e+00   1.0509885e+04
 2.3080599e+00   1.0515318e+04
 2.3127401e+00   1.0536939e+04
 2.3174200e+00   1.0575706e+04
 2.3220999e+00   1.0591068e+04
 2.3267801e+00   1.0609079e+04
 2.3314600e+00   1.0643915e+04
 2.3361399e+00   1.0666252e+04
 2.3408201e+00   1.0680387e+04
 2.3455000e+00   1.0721929e+04
 2.3501799e+00   1.0739443e+04
 2.3548601e+00   1.0779574e+04
 2.3595400e+00   1.0789754e+04
 2.3642199e+00   1.0824555e+04
 2.3689001e+00   1.0860979e+04
 2.3735800e+00   1.0885241e+04
 2.3782599e+00   1.0916439e+04
 2.3829401e+00   1.0955585e+04
 2.3876200e+00   1.0978024e+04
 2.3922999e+00   1.1006285e+04
 2.3969800e+00   1.1057883e+04
 2.4016600e+00   1.1085357e+04
 2.4063399e+00   1.1105983e+04
 2.4110200e+00   1.1163511e+04
 2.4157000e+00   1.1199138e+04
 2.4203801e+00   1.1229910e+04
 2.4250600e+00   1.1265190e+04
 2.4297400e+00   1.1313512e+04
 2.4344201e+00   1.1353791e+04
 2.4391000e+00   1.1381073e+04
 2.4437799e+00   1.1426032e+04
 2.4484601e+00   1.1439720e+04
 2.4531400e+00   1.1479838e+04
 2.4578199e+00   1.1517178e+04
 2.4625001e+00   1.1568085e+04
 2.4671800e+00   1.1588974e+04
 2.4718599e+00   1.1646212e+04
 2.4765401e+00   1.1675942e+04
 2.4812200e+00   1.1695996e+04
 2.4858999e+00   1.1729391e+04
 2.4905801e+00   1.1768147e+04
 2.4952600e+00   1.1800150e+04
 2.4999399e+00   1.1857931e+04
 2.5046201e+00   1.1884460e+04
 2.5093000e+00   1.1912264e+04
 2.5139799e+00   1.1951662e+04
 2.5186601e+00   1.1992871e+04
 2.5233400e+00   1.2041218e+04
 2.5280199e+00   1.2074067e+04
 2.5327001e+00   1.2089653e+04
 2.5373800e+00   1.2138598e+04
 2.5420599e+00   1.2171620e+04
 2.5467401e+00   1.2209900e+04
 2.5514200e+00   1.2243702e+04
 2.5560999e+00   1.2261934e+04
 2.5607800e+00   1.2306346e+04
 2.5654600e+00   1.2329705e+04
 2.5701399e+00   1.2347415e+04
 2.5748200e+00   1.2389765e+04
 2.5795000e+00   1.2446894e+04
 2.5841801e+00   1.2463252e+04
 2.5888600e+00   1.2500333e+04
 2.5935400e+00   1.2514763e+04
 2.5982201e+00   1.2560137e+04
 2.6029000e+00   1.2562313e+04
 2.6075799e+00   1.2580713e+04
 2.6122601e+00   1.2607055e+04
 2.6169400e+00   1.2622089e+04
 2.6216199e+00   1.2644736e+04
 2.6263001e+00   1.2681067e+04
 2.6309800e+00   1.2678086e+04
 2.6356599e+00   1.2707453e+04
 2.6403401e+00   1.2730004e+04
 2.6450200e+00   1.2752737e+04
 2.6496999e+00   1.2767470e+04
 2.6543801e+00   1.2792192e+04
 2.6590600e+00   1.2813464e+04
 2.6637399e+00   1.2812365e+04
 2.6684201e+00   1.2839218e+04
 2.6731000e+00   1.2837538e+04
 2.6777799e+00   1.2851995e+04
 2.6824601e+00   1.2873596e+04
 2.6871400e+00   1.2881273e+04
 2.6918199e+00   1.2882690e+04
 2.6965001e+00   1.2865965e+04
 2.7011800e+00   1.2889597e+04
 2.7058599e+00   1.2894295e+04
 2.7105401e+00   1.2884243e+04
 2.7152200e+00   1.2904361e+04
 2.7198999e+00   1.2910130e+04
 2.7245800e+00   1.2881504e+04
 2.7292600e+00   1.2930124e+04
 2.7339399e+00   1.2923265e+04
 2.7386200e+00   1.2908923e+04
 2.7433000e+00   1.2926421e+04
 2.7479801e+00   1.2884060e+04
 2.7526600e+00   1.2911185e+04
 2.7573400e+00   1.2897375e+04
 2.7620201e+00   1.2898054e+04
 2.7667000e+00   1.2882744e+04
 2.7713799e+00   1.2870846e+04
 2.7760601e+00   1.2887511e+04
 2.7807400e+00   1.2861287e+04
 2.7854199e+00   1.2861588e+04
 2.7901001e+00   1.2863681e+04
 2.7947800e+00   1.2832026e+04
 2.7994599e+00   1.2820942e+04
 2.8041401e+00   1.2829194e+04
 2.8088200e+00   1.2815541e+04
 2.8134999e+00   1.2793278e+04
 2.8181801e+00   1.2796094e+04
 2.8228600e+00   1.2767393e+04
 2.8275399e+00   1.2755081e+04
 2.8322201e+00   1.2739937e+04
 2.8369000e+00   1.2717414e+04
 2.8415799e+00   1.2727628e+04
 2.8462601e+00   1.2702601e+04
 2.8509400e+00   1.2662665e+04
 2.8556199e+00   1.2668957e+04
 2.8603001e+00   1.2638202e+04
 2.8649800e+00   1.2625840e+04
 2.8696599e+00   1.2603949e+04
 2.8743401e+00   1.2597785e+04
 2.8790200e+00   1.2586771e+04
 2.8836999e+00   1.2549280e+04
 2.8883801e+00   1.2530405e+04
 2.8930600e+00   1.2523376e+04
 2.8977399e+00   1.2499556e+04
 2.9024200e+00   1.2479552e+04
 2.9071000e+00   1.2476673e+04
 2.9117801e+00   1.2445999e+04
 2.9164600e+00   1.2423151e+04
 2.9211400e+00   1.2430221e+04
 2.9258201e+00   1.2384248e+04
 2.9305000e+00   1.2358128e+04
 2.9351799e+00   1.2367880e+04
 2.9398601e+00   1.2327940e+04
 2.9445400e+00   1.2349504e+04
 2.9492199e+00   1.2307016e+04
 2.9539001e+00   1.2304276e+04
 2.9585800e+00   1.2278172e+04
 2.9632599e+00   1.2244870e+04
 2.9679401e+00   1.2228649e+04
 2.9726200e+00   1.2193241e+04
 2.9772999e+00   1.2164505e+04
 2.9819801e+00   1.2170301e+04
 2.9866600e+00   1.2106572e+04
 2.9913399e+00   1.2100381e+04
 2.9960201e+00   1.2080019e+04
 3.0007000e+00   1.2032103e+04
 3.0053799e+00   1.2017800e+04
 3.0100601e+00   1.1984233e+04
 3.0147400e+00   1.1969536e+04
 3.0194199e+00   1.1961010e+04
 3.0241001e+00   1.1907914e+04
 3.0287800e+00   1.1905655e+04
 3.0334599e+00   1.1877452e+04
 3.0381401e+00   1.1837722e+04
 3.0428200e+00   1.1822446e+04
 3.0474999e+00   1.1786947e+04
 3.0521801e+00   1.1729634e+04
 3.0568600e+00   1.1718176e+04
 3.0615399e+00   1.1675831e+04
 3.0662200e+00   1.1665365e+04
 3.0709000e+00   1.1640942e+04
 3.0755799e+00   1.1622420e+04
 3.0802600e+00   1.1612471e+04
 3.0849400e+00   1.1579137e+04
 3.0896201e+00   1.1534517e+04
 3.0943000e+00   1.1521732e+04
 3.0989799e+00   1.1489021e+04
 3.1036601e+00   1.1468579e+04
 3.1083400e+00   1.1470380e+04
 3.1130199e+00   1.1428599e+04
 3.1177001e+00   1.1425264e+04
 3.1223800e+00   1.1409202e+04
 3.1270599e+00   1.1347105e+04
 3.1317401e+00   1.1353559e+04
 3.1364200e+00   1.1311326e+04
 3.1410999e+00   1.1306277e+04
 3.1457801e+00   1.1283347e+04
 3.1504600e+00   1.1277724e+04
 3.1551399e+00   1.1239803e+04
 3.1598201e+00   1.1238109e+04
 3.1645000e+00   1.1214481e+04
 3.1691799e+00   1.1221449e+04
 3.1738601e+00   1.1184084e+04
 3.1785400e+00   1.1174074e+04
 3.1832199e+00   1.1145041e+04
 3.1879001e+00   1.1163017e+04
 3.1925800e+00   1.1142469e+04
 3.1972599e+00   1.1121146e+04
 3.2019401e+00   1.1099621e+04
 3.2066200e+00   1.1096318e+04
 3.2112999e+00   1.1102975e+04
 3.2159801e+00   1.1067263e+04
 3.2206600e+00   1.1031520e+04
 3.2253399e+00   1.1021814e+04
 3.2300200e+00   1.0993007e+04
 3.2347000e+00   1.0979239e+04
 3.2393799e+00   1.0985031e+04
 3.2440600e+00   1.0956951e+04
 3.2487400e+00   1.0952372e+04
 3.2534201e+00   1.0943157e+04
 3.2581000e+00   1.0950794e+04
 3.2627800e+00   1.0943561e+04
 3.2674601e+00   1.0910594e+04
 3.2721400e+00   1.0914193e+04
 3.2768199e+00   1.0887158e+04
 3.2815001e+00   1.0867761e+04
 3.2861800e+00   1.0871476e+04
 3.2908599e+00   1.0846699e+04
 3.2955401e+00   1.0863623e+04
 3.3002200e+00   1.0843984e+04
 3.3048999e+00   1.0836562e+04
 3.3095801e+00   1.0847056e+04
 3.3142600e+00   1.0862305e+04
 3.3189399e+00   1.0816682e+04
 3.3236201e+00   1.0862054e+04
 3.3283000e+00   1.0834136e+04
 3.3329799e+00   1.0817408e+04
 3.3376601e+00   1.0830799e+04
 3.3423400e+00   1.0821474e+04
 3.3470199e+00   1.0817408e+04
 3.3517001e+00   1.0827210e+04
 3.3563800e+00   1.0829948e+04
 3.3610599e+00   1.0811966e+04
 3.3657401e+00   1.0833443e+04
 3.3704200e+00   1.0813482e+04
 3.3750999e+00   1.0808690e+04
 3.3797801e+00   1.0805744e+04
 3.3844600e+00   1.0785925e+04
 3.3891399e+00   1.0800614e+04
 3.3938200e+00   1.0788725e+04
 3.3985000e+00   1.0805303e+04
 3.4031799e+00   1.0801783e+04
 3.4078600e+00   1.0780453e+04
 3.4125400e+00   1.0822917e+04
 3.4172201e+00   1.0811070e+04
 3.4219000e+00   1.0790920e+04
 3.4265800e+00   1.0836031e+04
 3.4312601e+00   1.0825134e+04
 3.4359400e+00   1.0831728e+04
 3.4406199e+00   1.0841822e+04
 3.4453001e+00   1.0819366e+04
 3.4499800e+00   1.0846460e+04
 3.4546599e+00   1.0852404e+04
 3.4593401e+00   1.0830698e+04
 3.4640200e+00   1.0849014e+04
 3.4686999e+00   1.0821651e+04
 3.4733801e+00   1.0831860e+04
 3.4780600e+00   1.0845542e+04
 3.4827399e+00   1.0813382e+04
 3.4874201e+00   1.0836117e+04
 3.4921000e+00   1.0833078e+04
 3.4967799e+00   1.0812919e+04
 3.5014601e+00   1.0812314e+04
 3.5061400e+00   1.0822804e+04
 3.5108199e+00   1.0789279e+04
 3.5155001e+00   1.0835610e+04
 3.5201800e+00   1.0809064e+04
 3.5248599e+00   1.0811056e+04
 3.5295401e+00   1.0830755e+04
 3.5342200e+00   1.0814256e+04
 3.5388999e+00   1.0826042e+04
 3.5435801e+00   1.0848743e+04
 3.5482600e+00   1.0778308e+04
 3.5529399e+00   1.0846964e+04
 3.5576200e+00   1.0791328e+04
 3.5623000e+00   1.0804086e+04
 3.5669799e+00   1.0822422e+04
 3.5716600e+00   1.0799706e+04
 3.5763400e+00   1.0804326e+04
 3.5810201e+00   1.0841872e+04
 3.5857000e+00   1.0800788e+04
 3.5903800e+00   1.0823267e+04
 3.5950601e+00   1.0837140e+04
 3.5997400e+00   1.0779558e+04
 3.6044199e+00   1.0840494e+04
 3.6091001e+00   1.0806218e+04
 3.6137800e+00   1.0770741e+04
 3.6184599e+00   1.0844631e+04
 3.6231401e+00   1.0788921e+04
 3.6278200e+00   1.0781224e+04
 3.6324999e+00   1.0810985e+04
 3.6371801e+00   1.0733401e+04
 3.6418600e+00   1.0796326e+04
 3.6465399e+00   1.0775623e+04
 3.6512201e+00   1.0699449e+04
 3.6559000e+00   1.0809043e+04
 3.6605799e+00   1.0735223e+04
 3.6652601e+00   1.0725234e+04
 3.6699400e+00   1.0787546e+04
 3.6746199e+00   1.0635889e+04
 3.6793001e+00   1.0643129e+04
 3.6839800e+00   1.0699808e+04
 3.6886599e+00   1.0587002e+04
 3.6933401e+00   1.0652031e+04
 3.6980200e+00   1.0568534e+04
 3.7026999e+00   1.0464198e+04
 3.7073801e+00   1.0527081e+04
 3.7120600e+00   1.0451841e+04
 3.7167399e+00   1.0435527e+04
 3.7214200e+00   1.0477817e+04
 3.7261000e+00   1.0348344e+04
 3.7307799e+00   1.0387808e+04
 3.7354600e+00   1.0329547e+04
 3.7401400e+00   1.0246045e+04
 3.7448201e+00   1.0263247e+04
 3.7495000e+00   1.0249780e+04
 3.7541800e+00   1.0099992e+04
 3.7588601e+00   1.0163023e+04
 3.7635400e+00   1.0016610e+04
 3.7682199e+00   1.0059118e+04
 3.7729001e+00   9.9801026e+03
 3.7775800e+00   9.9314598e+03
 3.7822599e+00   9.8583019e+03
 3.7869401e+00   9.8952459e+03
 3.7916200e+00   9.6921787e+03
 3.7962999e+00   9.9083934e+03
 3.8009801e+00   9.7227236e+03
 3.8056600e+00   9.7258993e+03
 3.8103399e+00   9.7580566e+03
 3.8150201e+00   9.6937406e+03
 3.8197000e+00   9.6472313e+03
 3.8243799e+00   9.7290603e+03
 3.8290601e+00   9.6011841e+03
 3.8337400e+00   9.6216264e+03
 3.8384199e+00   9.5715424e+03
 3.8431001e+00   9.4487000e+03
 3.8477800e+00   9.6154259e+03
 3.8524599e+00   9.4877432e+03
 3.8571401e+00   9.4617626e+03
 3.8618200e+00   9.4755852e+03
 3.8664999e+00   9.3579205e+03
 3.8711801e+00   9.4553538e+03
 3.8758600e+00   9.3792529e+03
 3.8805399e+00   9.2810377e+03
 3.8852201e+00   9.4010880e+03
 3.8899000e+00   9.2136370e+03
 3.8945799e+00   9.1633336e+03
 3.8992600e+00   9.1856800e+03
 3.9039400e+00   9.1423793e+03
 3.9086201e+00   9.0555046e+03
 3.9133000e+00   9.1357019e+03
 3.9179800e+00   8.9880373e+03
 3.9226601e+00   9.0107025e+03
 3.9273400e+00   9.0491492e+03
 3.9320199e+00   8.9267370e+03
 3.9367001e+00   8.9487782e+03
 3.9413800e+00   8.9176138e+03
 3.9460599e+00   8.8595001e+03
 3.9507401e+00   8.9089196e+03
 3.9554200e+00   8.8636823e+03
 3.9600999e+00   8.7951867e+03
 3.9647801e+00   8.7984696e+03
 3.9694600e+00   8.7367624e+03
 3.9741399e+00   8.7395158e+03
 3.9788201e+00   8.7400514e+03
 3.9835000e+00   8.7116566e+03
 3.9881799e+00   8.6861006e+03
 3.9928601e+00   8.6448159e+03
 3.9975400e+00   8.6136749e+03
 4.0022202e+00   8.6627236e+03
 4.0068998e+00   8.5355481e+03
 4.0115800e+00   8.6127594e+03
 4.0162601e+00   8.5750025e+03
 4.0209398e+00   8.4757374e+03
 4.0256200e+00   8.4971928e+03
 4.0303001e+00   8.4822915e+03
 4.0349798e+00   8.4273018e+03
 4.0396600e+00   8.5037927e+03
 4.0443401e+00   8.3760140e+03
 4.0490198e+00   8.3729412e+03
 4.0537000e+00   8.4110048e+03
 4.0583801e+00   8.3543033e+03
 4.0630598e+00   8.3775880e+03
 4.0677400e+00   8.3598052e+03
 4.0724201e+00   8.2821484e+03
 4.0770998e+00   8.3160143e+03
 4.0817800e+00   8.2930345e+03
 4.0864601e+00   8.2581126e+03
 4.0911398e+00   8.3453363e+03
 4.0958200e+00   8.1832972e+03
 4.1005001e+00   8.2299803e+03
 4.1051798e+00   8.2125657e+03
 4.1098599e+00   8.1698690e+03
 4.1145401e+00   8.2263797e+03
 4.1192198e+00   8.1720689e+03
 4.1238999e+00   8.1234160e+03
 4.1285801e+00   8.2155421e+03
 4.1332598e+00   8.0682187e+03
 4.1379399e+00   8.1255102e+03
 4.1426201e+00   8.1069595e+03
 4.1472998e+00   8.0231800e+03
 4.1519799e+00   8.0555238e+03
 4.1566601e+00   8.0435991e+03
 4.1613402e+00   7.9509483e+03
 4.1660199e+00   8.1030109e+03
 4.1707001e+00   7.9549354e+03
 4.1753802e+00   7.9502204e+03
 4.1800599e+00   8.0007713e+03
 4.1847401e+00   7.9257949e+03
 4.1894202e+00   7.9802544e+03
 4.1940999e+00   7.9482125e+03
 4.1987801e+00   7.9176967e+03
 4.2034602e+00   7.9841796e+03
 4.2081399e+00   7.9384216e+03
 4.2128201e+00   7.9527109e+03
 4.2175002e+00   8.0751074e+03
 4.2221799e+00   7.9415807e+03
 4.2268600e+00   8.0167789e+03
 4.2315402e+00   8.0092836e+03
 4.2362199e+00   7.9318571e+03
 4.2409000e+00   8.0862180e+03
 4.2455802e+00   8.1862652e+03
 4.2502599e+00   8.2310155e+03
 4.2549400e+00   8.4416094e+03
 4.2596202e+00   8.5268414e+03
 4.2642999e+00   8.7394166e+03
 4.2689800e+00   8.9627979e+03
 4.2736602e+00   9.3114706e+03
 4.2783399e+00   9.5761356e+03
 4.2830200e+00   9.8613545e+03
 4.2877002e+00   1.0015034e+04
 4.2923799e+00   1.0179716e+04
 4.2970600e+00   1.0228476e+04
 4.3017402e+00   1.0092876e+04
 4.3064198e+00   1.0027234e+04
 4.3111000e+00   9.7796790e+03
 4.3157802e+00   9.6331840e+03
 4.3204598e+00   9.4065089e+03
 4.3251400e+00   9.1021961e+03
 4.3298202e+00   9.0016761e+03
 4.3344998e+00   8.7955779e+03
 4.3391800e+00   8.6889672e+03
 4.3438601e+00   8.6196057e+03
 4.3485398e+00   8.4712997e+03
 4.3532200e+00   8.3954671e+03
 4.3579001e+00   8.3506911e+03
 4.3625798e+00   8.2167811e+03
 4.3672600e+00   8.1731565e+03
 4.3719401e+00   8.0900129e+03
 4.3766198e+00   8.0413852e+03
 4.3813000e+00   8.0084637e+03
 4.3859801e+00   7.9418811e+03
 4.3906598e+00   7.8558740e+03
 4.3953400e+00   7.9139496e+03
 4.4000201e+00   7.7786445e+03
 4.4046998e+00   7.8566739e+03
 4.4093800e+00   7.7225744e+03
 4.4140601e+00   7.7327905e+03
 4.4187398e+00   7.7103400e+03
 4.4234200e+00   7.6842709e+03
 4.4281001e+00   7.5920162e+03
 4.4327798e+00   7.7010485e+03
 4.4374599e+00   7.6019156e+03
 4.4421401e+00   7.6229718e+03
 4.4468198e+00   7.6008475e+03
 4.4514999e+00   7.5581461e+03
 4.4561801e+00   7.5697331e+03
 4.4608598e+00   7.5382524e+03
 4.4655399e+00   7.4864593e+03
 4.4702201e+00   7.5056721e+03
 4.4748998e+00   7.4712817e+03
 4.4795799e+00   7.4241635e+03
 4.4842601e+00   7.4478142e+03
 4.4889398e+00   7.3823568e+03
 4.4936199e+00   7.3862904e+03
 4.4983001e+00   7.3647322e+03
 4.5029802e+00   7.3031234e+03
 4.5076599e+00   7.2975085e+03
 4.5123401e+00   7.2596154e+03
 4.5170202e+00   7.1936700e+03
 4.5216999e+00   7.2050851e+03
 4.5263801e+00   7.1670424e+03
 4.5310602e+00   7.1493713e+03
 4.5357399e+00   7.1288448e+03
 4.5404201e+00   7.0998465e+03
 4.5451002e+00   7.0820486e+03
 4.5497799e+00   7.0710273e+03
 4.5544600e+00   7.0427005e+03
 4.5591402e+00   7.0448923e+03
 4.5638199e+00   7.0190263e+03
 4.5685000e+00   6.9526221e+03
 4.5731802e+00   6.9897166e+03
 4.5778599e+00   6.9536243e+03
 4.5825400e+00   6.9496810e+03
 4.5872202e+00   6.9332216e+03
 4.5918999e+00   6.9145616e+03
 4.5965800e+00   6.9034824e+03
 4.6012602e+00   6.8881487e+03
 4.6059399e+00   6.8708125e+03
 4.6106200e+00   6.8575877e+03
 4.6153002e+00   6.8323804e+03
 4.6199799e+00   6.8056041e+03
 4.6246600e+00   6.7945391e+03
 4.6293402e+00   6.7818735e+03
 4.6340199e+00   6.7606186e+03
 4.6387000e+00   6.7824452e+03
 4.6433802e+00   6.7373727e+03
 4.6480598e+00   6.7403507e+03
 4.6527400e+00   6.7166681e+03
 4.6574202e+00   6.6910164e+03
 4.6620998e+00   6.7066484e+03
 4.6667800e+00   6.6974956e+03
 4.6714602e+00   6.6675923e+03
 4.6761398e+00   6.6649361e+03
 4.6808200e+00   6.6507838e+03
 4.6855001e+00   6.6543846e+03
 4.6901798e+00   6.6528766e+03
 4.6948600e+00   6.6435623e+03
 4.6995401e+00   6.6279559e+03
 4.7042198e+00   6.6390021e+03
 4.7089000e+00   6.6385307e+03
 4.7135801e+00   6.6607414e+03
 4.7182598e+00   6.6556381e+03
 4.7229400e+00   6.6859109e+03
 4.7276201e+00   6.6773521e+03
 4.7322998e+00   6.7284519e+03
 4.7369800e+00   6.7329102e+03
 4.7416601e+00   6.7520326e+03
 4.7463398e+00   6.7785293e+03
 4.7510200e+00   6.8053763e+03
 4.7557001e+00   6.8160170e+03
 4.7603798e+00   6.8550062e+03
 4.7650599e+00   6.9002712e+03
 4.7697401e+00   6.9479990e+03
 4.7744198e+00   7.0168485e+03
 4.7790999e+00   7.0996898e+03
 4.7837801e+00   7.1716233e+03
 4.7884598e+00   7.3071496e+03
 4.7931399e+00   7.4456055e+03
 4.7978201e+00   7.6085800e+03
 4.8024998e+00   7.7980913e+03
 4.8071799e+00   8.0139562e+03
 4.8118601e+00   8.2579682e+03
 4.8165398e+00   8.5293851e+03
 4.8212199e+00   8.8275965e+03
 4.8259001e+00   9.0963972e+03
 4.8305802e+00   9.3893545e+03
 4.8352599e+00   9.6049808e+03
 4.8399401e+00   9.7657670e+03
 4.8446202e+00   9.7949969e+03
 4.8492999e+00   9.7315040e+03
 4.8539801e+00   9.5251546e+03
 4.8586602e+00   9.2596075e+03
 4.8633399e+00   8.9216953e+03
 4.8680201e+00   8.5978860e+03
 4.8727002e+00   8.2264670e+03
 4.8773799e+00   7.9518755e+03
 4.8820601e+00   7.7365296e+03
 4.8867402e+00   7.5338260e+03
 4.8914199e+00   7.4384189e+03
 4.8961000e+00   7.3652670e+03
 4.9007802e+00   7.3067980e+03
 4.9054599e+00   7.3205489e+03
 4.9101400e+00   7.3375918e+03
 4.9148202e+00   7.3533305e+03
 4.9194999e+00   7.4086022e+03
 4.9241800e+00   7.4702690e+03
 4.9288602e+00   7.5621633e+03
 4.9335399e+00   7.6607595e+03
 4.9382200e+00   7.7839606e+03
 4.9429002e+00   7.8983630e+03
 4.9475799e+00   8.1173012e+03
 4.9522600e+00   8.3143425e+03
 4.9569402e+00   8.5585092e+03
 4.9616199e+00   8.8474352e+03
 4.9663000e+00   9.1827046e+03
 4.9709802e+00   9.4982822e+03
 4.9756598e+00   9.8699607e+03
 4.9803400e+00   1.0201069e+04
 4.9850202e+00   1.0519225e+04
 4.9896998e+00   1.0736823e+04
 4.9943800e+00   1.0896630e+04
 4.9990602e+00   1.0944144e+04
 5.0037398e+00   1.0885785e+04
 5.0084200e+00   1.0710345e+04
 5.0131001e+00   1.0427160e+04
 5.0177798e+00   1.0098768e+04
 5.0224600e+00   9.6921960e+03
 5.0271401e+00   9.2786523e+03
 5.0318198e+00   8.8405326e+03
 5.0365000e+00   8.4921544e+03
 5.0411801e+00   8.1164161e+03
 5.0458598e+00   7.8329103e+03
 5.0505400e+00   7.5603094e+03
 5.0552201e+00   7.3981495e+03
 5.0598998e+00   7.2101820e+03
 5.0645800e+00   7.1037292e+03
 5.0692601e+00   7.0409403e+03
 5.0739398e+00   7.0221141e+03
 5.0786200e+00   7.0664167e+03
 5.0833001e+00   7.1833452e+03
 5.0879798e+00   7.2588298e+03
 5.0926600e+00   7.6442895e+03
 5.0973401e+00   7.9002337e+03
 5.1020198e+00   8.3593063e+03
 5.1066999e+00   9.6241266e+03
 5.1113801e+00   1.0602719e+04
 5.1160598e+00   1.3007867e+04
 5.1207399e+00   1.7494518e+04
 5.1254201e+00   2.1399729e+04
 5.1300998e+00   3.1301663e+04
 5.1347799e+00   3.9824986e+04
 5.1394601e+00   4.3789448e+04
 5.1441398e+00   5.1177384e+04
 5.1488199e+00   4.7375894e+04
 5.1535001e+00   4.1657224e+04
 5.1581802e+00   3.6314154e+04
 5.1628599e+00   2.6314777e+04
 5.1675401e+00   1.9450029e+04
 5.1722202e+00   1.4886759e+04
 5.1768999e+00   1.1019527e+04
 5.1815801e+00   9.4569926e+03
 5.1862602e+00   8.1130128e+03
 5.1909399e+00   7.3816514e+03
 5.1956201e+00   7.1344351e+03
 5.2003002e+00   6.7916367e+03
 5.2049799e+00   6.6165695e+03
 5.2096601e+00   6.5080044e+03
 5.2143402e+00   6.4031383e+03
 5.2190199e+00   6.3338929e+03
 5.2237000e+00   6.2674102e+03
 5.2283802e+00   6.1814437e+03
 5.2330599e+00   6.1578446e+03
 5.2377400e+00   6.1051358e+03
 5.2424202e+00   6.0828401e+03
 5.2470999e+00   6.0749385e+03
 5.2517800e+00   6.0235888e+03
 5.2564602e+00   6.0064019e+03
 5.2611399e+00   5.9925485e+03
 5.2658200e+00   5.9637776e+03
 5.2705002e+00   5.9899068e+03
 5.2751799e+00   5.9260201e+03
 5.2798600e+00   5.9515855e+03
 5.2845402e+00   5.9361177e+03
 5.2892199e+00   5.9133674e+03
 5.2939000e+00   5.9118206e+03
 5.2985802e+00   5.9123335e+03
 5.3032598e+00   5.8821525e+03
 5.3079400e+00   5.8961378e+03
 5.3126202e+00   5.8700342e+03
 5.3172998e+00   5.8883525e+03
 5.3219800e+00   5.8806211e+03
 5.3266602e+00   5.8681677e+03
 5.3313398e+00   5.8593204e+03
 5.3360200e+00   5.8671146e+03
 5.3407001e+00   5.8362399e+03
 5.3453798e+00   5.8292921e+03
 5.3500600e+00   5.8263104e+03
 5.3547401e+00   5.8376377e+03
 5.3594198e+00   5.8263587e+03
 5.3641000e+00   5.8331209e+03
 5.3687801e+00   5.8166895e+03
 5.3734598e+00   5.8252854e+03
 5.3781400e+00   5.8210700e+03
 5.3828201e+00   5.8327934e+03
 5.3874998e+00   5.8266433e+03
 5.3921800e+00   5.8108947e+03
 5.3968601e+00   5.8384072e+03
 5.4015398e+00   5.8111361e+03
 5.4062200e+00   5.8316463e+03
 5.4109001e+00   5.8255883e+03
 5.4155798e+00   5.8277433e+03
 5.4202600e+00   5.8395415e+03
 5.4249401e+00   5.8366291e+03
 5.4296198e+00   5.8260499e+03
 5.4342999e+00   5.8487099e+03
 5.4389801e+00   5.8412044e+03
 5.4436598e+00   5.8618831e+03
 5.4483399e+00   5.8678532e+03
 5.4530201e+00   5.8839829e+03
 5.4576998e+00   5.8980210e+03
 5.4623799e+00   5.9058585e+03
 5.4670601e+00   5.9213115e+03
 5.4717398e+00   5.9631654e+03
 5.4764199e+00   5.9768784e+03
 5.4811001e+00   6.0130290e+03
 5.4857798e+00   6.0553044e+03
 5.4904599e+00   6.0679428e+03
 5.4951401e+00   6.1315939e+03
 5.4998202e+00   6.1866277e+03
 5.5044999e+00   6.2484021e+03
 5.5091801e+00   6.3292825e+03
 5.5138602e+00   6.4438468e+03
 5.5185399e+00   6.5539223e+03
 5.5232201e+00   6.7107794e+03
 5.5279002e+00   6.8689095e+03
 5.5325799e+00   7.1233922e+03
 5.5372601e+00   7.3154400e+03
 5.5419402e+00   7.5821553e+03
 5.5466199e+00   7.8428531e+03
 5.5513000e+00   8.0947139e+03
 5.5559802e+00   8.3059634e+03
 5.5606599e+00   8.4970603e+03
 5.5653400e+00   8.6113238e+03
 5.5700202e+00   8.6837627e+03
 5.5746999e+00   8.6963368e+03
 5.5793800e+00   8.6580078e+03
 5.5840602e+00   8.5856788e+03
 5.5887399e+00   8.4414825e+03
 5.5934200e+00   8.2952456e+03
 5.5981002e+00   8.1539275e+03
 5.6027799e+00   7.9607378e+03
 5.6074600e+00   7.7796654e+03
 5.6121402e+00   7.6059453e+03
 5.6168199e+00   7.4307226e+03
 5.6215000e+00   7.2565590e+03
 5.6261802e+00   7.1163499e+03
 5.6308599e+00   6.9828541e+03
 5.6355400e+00   6.8698061e+03
 5.6402202e+00   6.7611055e+03
 5.6448998e+00   6.6776376e+03
 5.6495800e+00   6.6050301e+03
 5.6542602e+00   6.5004896e+03
 5.6589398e+00   6.4545124e+03
 5.6636200e+00   6.3885764e+03
 5.6683002e+00   6.3357431e+03
 5.6729798e+00   6.2789565e+03
 5.6776600e+00   6.2389798e+03
 5.6823401e+00   6.1986774e+03
 5.6870198e+00   6.1910862e+03
 5.6917000e+00   6.1299199e+03
 5.6963801e+00   6.1294830e+03
 5.7010598e+00   6.1054384e+03
 5.7057400e+00   6.0855887e+03
 5.7104201e+00   6.0889852e+03
 5.7150998e+00   6.0542970e+03
 5.7197800e+00   6.0511456e+03
 5.7244601e+00   6.0497624e+03
 5.7291398e+00   6.0625240e+03
 5.7338200e+00   6.0440832e+03
 5.7385001e+00   6.0617642e+03
 5.7431798e+00   6.0764450e+03
 5.7478600e+00   6.1020164e+03
 5.7525401e+00   6.1058754e+03
 5.7572198e+00   6.1321525e+03
 5.7618999e+00   6.1370910e+03
 5.7665801e+00   6.1313252e+03
 5.7712598e+00   6.1458450e+03
 5.7759399e+00   6.1379228e+03
 5.7806201e+00   6.1218704e+03
 5.7852998e+00   6.1413825e+03
 5.7899799e+00   6.1168713e+03
 5.7946601e+00   6.1207671e+03
 5.7993398e+00   6.1353329e+03
 5.8040199e+00   6.1062058e+03
 5.8087001e+00   6.1289703e+03
 5.8133798e+00   6.1270091e+03
 5.8180599e+00   6.1353491e+03
 5.8227401e+00   6.1638873e+03
 5.8274202e+00   6.1647316e+03
 5.8320999e+00   6.1935296e+03
 5.8367801e+00   6.2241209e+03
 5.8414602e+00   6.2485272e+03
 5.8461399e+00   6.2795974e+03
 5.8508201e+00   6.3262780e+03
 5.8555002e+00   6.3584612e+03
 5.8601799e+00   6.4132644e+03
 5.8648601e+00   6.4801134e+03
 5.8695402e+00   6.5389117e+03
 5.8742199e+00   6.6276950e+03
 5.8789001e+00   6.6902106e+03
 5.8835802e+00   6.8269075e+03
 5.8882599e+00   6.9631717e+03
 5.8929400e+00   7.0788885e+03
 5.8976202e+00   7.3218336e+03
 5.9022999e+00   7.5681033e+03
 5.9069800e+00   7.9425241e+03
 5.9116602e+00   8.4737483e+03
 5.9163399e+00   9.1614537e+03
 5.9210200e+00   1.0134739e+04
 5.9257002e+00   1.1471452e+04
 5.9303799e+00   1.3095323e+04
 5.9350600e+00   1.4629342e+04
 5.9397402e+00   1.5486591e+04
 5.9444199e+00   1.5789710e+04
 5.9491000e+00   1.5650231e+04
 5.9537802e+00   1.4952998e+04
 5.9584599e+00   1.3902771e+04
 5.9631400e+00   1.2854640e+04
 5.9678202e+00   1.2110936e+04
 5.9724998e+00   1.1535458e+04
 5.9771800e+00   1.1186367e+04
 5.9818602e+00   1.0916366e+04
 5.9865398e+00   1.0721185e+04
 5.9912200e+00   1.0469118e+04
 5.9959002e+00   1.0200318e+04
 6.0005798e+00   9.9399732e+03
 6.0052600e+00   9.6029530e+03
 6.0099401e+00   9.3076695e+03
 6.0146198e+00   8.9844453e+03
 6.0193000e+00   8.6320783e+03
 6.0239801e+00   8.3786080e+03
 6.0286598e+00   8.0701825e+03
 6.0333400e+00   7.8004361e+03
 6.0380201e+00   7.6038235e+03
 6.0426998e+00   7.3629242e+03
 6.0473800e+00   7.1706726e+03
 6.0520601e+00   7.0237166e+03
 6.0567398e+00   6.8322645e+03
 6.0614200e+00   6.7529299e+03
 6.0661001e+00   6.6242672e+03
 6.0707798e+00   6.5187607e+03
 6.0754600e+00   6.4614684e+03
 6.0801401e+00   6.3748668e+03
 6.0848198e+00   6.3103359e+03
 6.0895000e+00   6.2852739e+03
 6.0941801e+00   6.2048303e+03
 6.0988598e+00   6.1952241e+03
 6.1035399e+00   6.1643249e+03
 6.1082201e+00   6.1162016e+03
 6.1128998e+00   6.1133489e+03
 6.1175799e+00   6.0712419e+03
 6.1222601e+00   6.0535402e+03
 6.1269398e+00   6.0503551e+03
 6.1316199e+00   6.0139977e+03
 6.1363001e+00   6.0066378e+03
 6.1409798e+00   6.0050813e+03
 6.1456599e+00   5.9734418e+03
 6.1503401e+00   5.9909825e+03
 6.1550202e+00   5.9701588e+03
 6.1596999e+00   5.9582376e+03
 6.1643801e+00   5.9717277e+03
 6.1690602e+00   5.9671425e+03
 6.1737399e+00   5.9446454e+03
 6.1784201e+00   5.9657774e+03
 6.1831002e+00   5.9405691e+03
 6.1877799e+00   5.9495008e+03
 6.1924601e+00   5.9428703e+03
 6.1971402e+00   5.9404176e+03
 6.2018199e+00   5.9586824e+03
 6.2065001e+00   5.9358776e+03
 6.2111802e+00   5.9440403e+03
 6.2158599e+00   5.9683879e+03
 6.2205400e+00   5.9148123e+03
 6.2252202e+00   5.9401588e+03
 6.2298999e+00   5.9524970e+03
 6.2345800e+00   5.9160179e+03
 6.2392602e+00   5.9454889e+03
 6.2439399e+00   5.9425223e+03
 6.2486200e+00   5.9295254e+03
 6.2533002e+00   5.9378357e+03
 6.2579799e+00   5.9537635e+03
 6.2626600e+00   5.9406948e+03
 6.2673402e+00   5.9615645e+03
 6.2720199e+00   5.9196123e+03
 6.2767000e+00   5.9530556e+03
 6.2813802e+00   5.9422019e+03
 6.2860599e+00   5.9549925e+03
 6.2907400e+00   5.9490199e+03
 6.2954202e+00   5.9703698e+03
 6.3000998e+00   5.9468261e+03
 6.3047800e+00   5.9875967e+03
 6.3094602e+00   5.9495149e+03
 6.3141398e+00   5.9910666e+03
 6.3188200e+00   5.9850092e+03
 6.3235002e+00   5.9751521e+03
 6.3281798e+00   6.0090697e+03
 6.3328600e+00   6.0003599e+03
 6.3375401e+00   6.0152462e+03
 6.3422198e+00   6.0089956e+03
 6.3469000e+00   5.9938681e+03
 6.3515801e+00   6.0093119e+03
 6.3562598e+00   6.0230944e+03
 6.3609400e+00   5.9890037e+03
 6.3656201e+00   6.0159953e+03
 6.3702998e+00   5.9960365e+03
 6.3749800e+00   6.0041421e+03
 6.3796601e+00   5.9970119e+03
 6.3843398e+00   6.0161956e+03
 6.3890200e+00   6.0023293e+03
 6.3937001e+00   6.0210913e+03
 6.3983798e+00   6.0100454e+03
 6.4030600e+00   6.0321693e+03
 6.4077401e+00   6.0502366e+03
 6.4124198e+00   6.0525271e+03
 6.4171000e+00   6.0852557e+03
 6.4217801e+00   6.0904792e+03
 6.4264598e+00   6.0786044e+03
 6.4311399e+00   6.0877225e+03
 6.4358201e+00   6.0892499e+03
 6.4404998e+00   6.1123934e+03
 6.4451799e+00   6.1086152e+03
 6.4498601e+00   6.0946384e+03
 6.4545398e+00   6.0994574e+03
 6.4592199e+00   6.1061491e+03
 6.4639001e+00   6.1130320e+03
 6.4685798e+00   6.1093497e+03
 6.4732599e+00   6.1089218e+03
 6.4779401e+00   6.1150793e+03
 6.4826198e+00   6.0965168e+03
 6.4872999e+00   6.1139614e+03
 6.4919801e+00   6.1124936e+03
 6.4966602e+00   6.1534930e+03
 6.5013399e+00   6.0957770e+03
 6.5060201e+00   6.1508678e+03
 6.5107002e+00   6.1195093e+03
 6.5153799e+00   6.1341592e+03
 6.5200601e+00   6.1532399e+03
 6.5247402e+00   6.1324819e+03
 6.5294199e+00   6.1020195e+03
 6.5341001e+00   6.1513363e+03
 6.5387802e+00   6.1366336e+03
 6.5434599e+00   6.1615000e+03
 6.5481400e+00   6.1867979e+03
 6.5528202e+00   6.1864833e+03
 6.5574999e+00   6.2076739e+03
 6.5621800e+00   6.1766460e+03
 6.5668602e+00   6.2268011e+03
 6.5715399e+00   6.2278608e+03
 6.5762200e+00   6.2284687e+03
 6.5809002e+00   6.2444582e+03
 6.5855799e+00   6.2704303e+03
 6.5902600e+00   6.2271638e+03
 6.5949402e+00   6.2690048e+03
 6.5996199e+00   6.2301000e+03
 6.6043000e+00   6.2853328e+03
 6.6089802e+00   6.2615857e+03
 6.6136599e+00   6.2795983e+03
 6.6183400e+00   6.2931627e+03
 6.6230202e+00   6.2961108e+03
 6.6276999e+00   6.3015950e+03
 6.6323800e+00   6.3168785e+03
 6.6370602e+00   6.3308314e+03
 6.6417398e+00   6.3260396e+03
 6.6464200e+00   6.4078180e+03
 6.6511002e+00   6.3631082e+03
 6.6557798e+00   6.4058336e+03
 6.6604600e+00   6.4105586e+03
 6.6651402e+00   6.4333852e+03
 6.6698198e+00   6.4225923e+03
 6.6745000e+00   6.4574522e+03
 6.6791801e+00   6.4311180e+03
 6.6838598e+00   6.5156338e+03
 6.6885400e+00   6.4275692e+03
 6.6932201e+00   6.5177509e+03
 6.6978998e+00   6.4641989e+03
 6.7025800e+00   6.4982695e+03
 6.7072601e+00   6.5185266e+03
 6.7119398e+00   6.5333081e+03
 6.7166200e+00   6.5369330e+03
 6.7213001e+00   6.5454644e+03
 6.7259798e+00   6.5691687e+03
 6.7306600e+00   6.5855187e+03
 6.7353401e+00   6.6358503e+03
 6.7400198e+00   6.5927473e+03
 6.7447000e+00   6.6734488e+03
 6.7493801e+00   6.6132470e+03
 6.7540598e+00   6.6926309e+03
 6.7587399e+00   6.6660216e+03
 6.7634201e+00   6.7151208e+03
 6.7680998e+00   6.6986786e+03
 6.7727799e+00   6.7982060e+03
 6.7774601e+00   6.6917037e+03
 6.7821398e+00   6.7928218e+03
 6.7868199e+00   6.7586690e+03
 6.7915001e+00   6.8113569e+03
 6.7961798e+00   6.7932243e+03
 6.8008599e+00   6.8000721e+03
 6.8055401e+00   6.7990056e+03
 6.8102198e+00   6.8118778e+03
 6.8148999e+00   6.8343085e+03
 6.8195801e+00   6.8330262e+03
 6.8242602e+00   6.8575035e+03
 6.8289399e+00   6.8334655e+03
 6.8336201e+00   6.9080845e+03
 6.8383002e+00   6.8868335e+03
 6.8429799e+00   6.9323941e+03
 6.8476601e+00   7.0159095e+03
 6.8523402e+00   6.9717903e+03
 6.8570199e+00   7.0357776e+03
 6.8617001e+00   7.0705615e+03
 6.8663802e+00   7.1496767e+03
 6.8710599e+00   7.2054437e+03
 6.8757401e+00   7.2831014e+03
 6.8804202e+00   7.3164858e+03
 6.8850999e+00   7.4020531e+03
 6.8897800e+00   7.5180164e+03
 6.8944602e+00   7.5792899e+03
 6.8991399e+00   7.7373180e+03
 6.9038200e+00   7.8099609e+03
 6.9085002e+00   7.9694805e+03
 6.9131799e+00   8.0029745e+03
 6.9178600e+00   8.2371871e+03
 6.9225402e+00   8.2757031e+03
 6.9272199e+00   8.3965990e+03
 6.9319000e+00   8.4196288e+03
 6.9365802e+00   8.5382565e+03
 6.9412599e+00   8.4790612e+03
 6.9459400e+00   8.5765255e+03
 6.9506202e+00   8.5175211e+03
 6.9552999e+00   8.5581847e+03
 6.9599800e+00   8.5149121e+03
 6.9646602e+00   8.4322947e+03
 6.9693398e+00   8.3122496e+03
 6.9740200e+00   8.2979886e+03
 6.9787002e+00   8.1874548e+03
 6.9833798e+00   8.1067334e+03
 6.9880600e+00   8.0616758e+03
 6.9927402e+00   7.9701285e+03
 6.9974198e+00   7.9268786e+03
 7.0021000e+00   7.8228595e+03
 7.0067801e+00   7.8145352e+03
 7.0114598e+00   7.7597511e+03
 7.0161400e+00   7.7089641e+03
 7.0208201e+00   7.6336116e+03
 7.0254998e+00   7.6263461e+03
 7.0301800e+00   7.5372039e+03
 7.0348601e+00   7.5868805e+03
 7.0395398e+00   7.5128721e+03
 7.0442200e+00   7.5418211e+03
 7.0489001e+00   7.4743041e+03
 7.0535798e+00   7.4679211e+03
 7.0582600e+00   7.4357041e+03
 7.0629401e+00   7.4948852e+03
 7.0676198e+00   7.3861327e+03
 7.0723000e+00   7.4160849e+03
 7.0769801e+00   7.3009274e+03
 7.0816598e+00   7.2556660e+03
 7.0863400e+00   7.2236249e+03
 7.0910201e+00   7.1090479e+03
 7.0956998e+00   7.0415849e+03
 7.1003799e+00   7.0229253e+03
 7.1050601e+00   6.9871532e+03
 7.1097398e+00   6.9367941e+03
 7.1144199e+00   6.9231032e+03
 7.1191001e+00   6.8839846e+03
 7.1237798e+00   6.9035327e+03
 7.1284599e+00   6.8561653e+03
 7.1331401e+00   6.8551633e+03
 7.1378198e+00   6.8277242e+03
 7.1424999e+00   6.8305164e+03
 7.1471801e+00   6.8007816e+03
 7.1518602e+00   6.8082268e+03
 7.1565399e+00   6.7955378e+03
 7.1612201e+00   6.7844757e+03
 7.1659002e+00   6.7536707e+03
 7.1705799e+00   6.7731418e+03
 7.1752601e+00   6.7742845e+03
 7.1799402e+00   6.7587873e+03
 7.1846199e+00   6.7424146e+03
 7.1893001e+00   6.7471441e+03
 7.1939802e+00   6.7304911e+03
 7.1986599e+00   6.7091600e+03
 7.2033401e+00   6.7155326e+03
 7.2080202e+00   6.6918260e+03
 7.2126999e+00   6.7231072e+03
 7.2173800e+00   6.6773121e+03
 7.2220602e+00   6.6860978e+03
 7.2267399e+00   6.6851301e+03
 7.2314200e+00   6.6928604e+03
 7.2361002e+00   6.6855564e+03
 7.2407799e+00   6.6936766e+03
 7.2454600e+00   6.6861348e+03
 7.2501402e+00   6.7091655e+03
 7.2548199e+00   6.7183811e+03
 7.2595000e+00   6.7146907e+03
 7.2641802e+00   6.7442528e+03
 7.2688599e+00   6.7284634e+03
 7.2735400e+00   6.7295619e+03
 7.2782202e+00   6.7266459e+03
 7.2828999e+00   6.7249199e+03
 7.2875800e+00   6.7293199e+03
 7.2922602e+00   6.7145680e+03
 7.2969398e+00   6.6995756e+03
 7.3016200e+00   6.7261445e+03
 7.3063002e+00   6.7206690e+03
 7.3109798e+00   6.7283561e+03
 7.3156600e+00   6.7444627e+03
 7.3203402e+00   6.7555407e+03
 7.3250198e+00   6.7969620e+03
 7.3297000e+00   6.7977034e+03
 7.3343801e+00   6.8021653e+03
 7.3390598e+00   6.8320020e+03
 7.3437400e+00   6.8331729e+03
 7.3484201e+00   6.8359744e+03
 7.3530998e+00   6.8625283e+03
 7.3577800e+00   6.8820409e+03
 7.3624601e+00   6.8923699e+03
 7.3671398e+00   6.9049348e+03
 7.3718200e+00   6.9340175e+03
 7.3765001e+00   6.9455840e+03
 7.3811798e+00   6.9635907e+03
 7.3858600e+00   6.9797028e+03
 7.3905401e+00   7.0101116e+03
 7.3952198e+00   7.0329208e+03
 7.3999000e+00   7.0600390e+03
 7.4045801e+00   7.0924327e+03
 7.4092598e+00   7.1139185e+03
 7.4139400e+00   7.1679995e+03
 7.4186201e+00   7.1884443e+03
 7.4232998e+00   7.2468046e+03
 7.4279799e+00   7.2918665e+03
 7.4326601e+00   7.3538937e+03
 7.4373398e+00   7.3869237e+03
 7.4420199e+00   7.4397593e+03
 7.4467001e+00   7.4779961e+03
 7.4513798e+00   7.5166205e+03
 7.4560599e+00   7.5390322e+03
 7.4607401e+00   7.5558507e+03
 7.4654198e+00   7.5697393e+03
 7.4700999e+00   7.5516916e+03
 7.4747801e+00   7.5531622e+03
 7.4794598e+00   7.5225828e+03
 7.4841399e+00   7.5132947e+03
 7.4888201e+00   7.4649699e+03
 7.4935002e+00   7.4287131e+03
 7.4981799e+00   7.3884061e+03
 7.5028601e+00   7.3693997e+03
 7.5075402e+00   7.2962393e+03
 7.5122199e+00   7.2695814e+03
 7.5169001e+00   7.2022744e+03
 7.5215802e+00   7.1694191e+03
 7.5262599e+00   7.1313456e+03
 7.5309401e+00   7.0781368e+03
 7.5356202e+00   7.0601197e+03
 7.5402999e+00   7.0159998e+03
 7.5449800e+00   7.0091431e+03
 7.5496602e+00   6.9630524e+03
 7.5543399e+00   6.9431979e+03
 7.5590200e+00   6.9046517e+03
 7.5637002e+00   6.9144934e+03
 7.5683799e+00   6.8670426e+03
 7.5730600e+00   6.8711974e+03
 7.5777402e+00   6.8351479e+03
 7.5824199e+00   6.8159055e+03
 7.5871000e+00   6.7877670e+03
 7.5917802e+00   6.7679438e+03
 7.5964599e+00   6.7445088e+03
 7.6011400e+00   6.7231839e+03
 7.6058202e+00   6.6773470e+03
 7.6104999e+00   6.6537121e+03
 7.6151800e+00   6.6512004e+03
 7.6198602e+00   6.5330755e+03
 7.6245399e+00   6.5363113e+03
 7.6292200e+00   6.4580371e+03
 7.6339002e+00   6.4513910e+03
 7.6385798e+00   6.3931973e+03
 7.6432600e+00   6.3825370e+03
 7.6479402e+00   6.3492580e+03
 7.6526198e+00   6.3326264e+03
 7.6573000e+00   6.2849636e+03
 7.6619802e+00   6.2875404e+03
 7.6666598e+00   6.2516901e+03
 7.6713400e+00   6.2330357e+03
 7.6760201e+00   6.2126118e+03
 7.6806998e+00   6.1884088e+03
 7.6853800e+00   6.1754157e+03
 7.6900601e+00   6.1569404e+03
 7.6947398e+00   6.1500137e+03
 7.6994200e+00   6.1154995e+03
 7.7041001e+00   6.1276802e+03
 7.7087798e+00   6.1160139e+03
 7.7134600e+00   6.1133159e+03
 7.7181401e+00   6.0756631e+03
 7.7228198e+00   6.0935922e+03
 7.7275000e+00   6.0497934e+03
 7.7321801e+00   6.0629164e+03
 7.7368598e+00   6.0349096e+03
 7.7415400e+00   6.0261404e+03
 7.7462201e+00   6.0094964e+03
 7.7508998e+00   5.9942509e+03
 7.7555799e+00   5.9621231e+03
 7.7602601e+00   5.9866288e+03
 7.7649398e+00   5.9560011e+03
 7.7696199e+00   5.9474901e+03
 7.7743001e+00   5.9330336e+03
 7.7789798e+00   5.9000492e+03
 7.7836599e+00   5.9124790e+03
 7.7883401e+00   5.8977937e+03
 7.7930198e+00   5.9111924e+03
 7.7976999e+00   5.8998632e+03
 7.8023801e+00   5.8830375e+03
 7.8070598e+00   5.8652241e+03
 7.8117399e+00   5.8665046e+03
 7.8164201e+00   5.8480168e+03
 7.8211002e+00   5.8481582e+03
 7.8257799e+00   5.8319637e+03
 7.8304601e+00   5.8042917e+03
 7.8351402e+00   5.8221022e+03
 7.8398199e+00   5.8088201e+03
 7.8445001e+00   5.7982291e+03
 7.8491802e+00   5.7981350e+03
 7.8538599e+00   5.7713827e+03
 7.8585401e+00   5.7739012e+03
 7.8632202e+00   5.7769376e+03
 7.8678999e+00   5.7467418e+03
 7.8725801e+00   5.7730599e+03
 7.8772602e+00   5.7556311e+03
 7.8819399e+00   5.7458884e+03
 7.8866200e+00   5.7519129e+03
 7.8913002e+00   5.7342206e+03
 7.8959799e+00   5.7141997e+03
 7.9006600e+00   5.7331086e+03
 7.9053402e+00   5.6881950e+03
 7.9100199e+00   5.7232023e+03
 7.9147000e+00   5.6865858e+03
 7.9193802e+00   5.6867221e+03
 7.9240599e+00   5.6823074e+03
 7.9287400e+00   5.6730578e+03
 7.9334202e+00   5.6662738e+03
 7.9380999e+00   5.6648619e+03
 7.9427800e+00   5.6384538e+03
 7.9474602e+00   5.6508960e+03
 7.9521399e+00   5.6366959e+03
 7.9568200e+00   5.6206676e+03
 7.9615002e+00   5.6393972e+03
 7.9661798e+00   5.6229130e+03
 7.9708600e+00   5.6166904e+03
 7.9755402e+00   5.6168391e+03
 7.9802198e+00   5.6012016e+03
 7.9849000e+00   5.6165739e+03
 7.9895802e+00   5.6185758e+03
 7.9942598e+00   5.5837751e+03
 7.9989400e+00   5.6083738e+03
 8.0036201e+00   5.5733796e+03
 8.0082998e+00   5.5901567e+03
 8.0129805e+00   5.5711193e+03
 8.0176601e+00   5.5598775e+03
 8.0223398e+00   5.5532215e+03
 8.0270205e+00   5.5453818e+03
 8.0317001e+00   5.5437977e+03
 8.0363798e+00   5.5722957e+03
 8.0410604e+00   5.5382067e+03
 8.0457401e+00   5.5473233e+03
 8.0504198e+00   5.5382457e+03
 8.0551004e+00   5.5241954e+03
 8.0597801e+00   5.5490395e+03
 8.0644598e+00   5.5470564e+03
 8.0691404e+00   5.5464368e+03
 8.0738201e+00   5.5571960e+03
 8.0784998e+00   5.5539314e+03
 8.0831804e+00   5.5509338e+03
 8.0878601e+00   5.6070775e+03
 8.0925398e+00   5.5670586e+03
 8.0972204e+00   5.6095929e+03
 8.1019001e+00   5.6146284e+03
 8.1065798e+00   5.6195620e+03
 8.1112604e+00   5.6561416e+03
 8.1159401e+00   5.6367985e+03
 8.1206198e+00   5.6505875e+03
 8.1253004e+00   5.6575936e+03
 8.1299801e+00   5.6563913e+03
 8.1346598e+00   5.6593118e+03
 8.1393404e+00   5.6763371e+03
 8.1440201e+00   5.6407536e+03
 8.1486998e+00   5.6899361e+03
 8.1533804e+00   5.6571007e+03
 8.1580601e+00   5.6982724e+03
 8.1627398e+00   5.6708745e+03
 8.1674204e+00   5.7001488e+03
 8.1721001e+00   5.6919741e+03
 8.1767797e+00   5.7192622e+03
 8.1814604e+00   5.7054211e+03
 8.1861401e+00   5.7681808e+03
 8.1908197e+00   5.7592887e+03
 8.1955004e+00   5.8056114e+03
 8.2001801e+00   5.8535579e+03
 8.2048597e+00   5.8903959e+03
 8.2095404e+00   5.9458325e+03
 8.2142200e+00   6.0215962e+03
 8.2188997e+00   6.0657357e+03
 8.2235804e+00   6.1562996e+03
 8.2282600e+00   6.2389500e+03
 8.2329397e+00   6.2884859e+03
 8.2376204e+00   6.4283113e+03
 8.2423000e+00   6.4900296e+03
 8.2469797e+00   6.6371638e+03
 8.2516603e+00   6.7482756e+03
 8.2563400e+00   6.8833027e+03
 8.2610197e+00   7.0062519e+03
 8.2657003e+00   7.1296120e+03
 8.2703800e+00   7.2657282e+03
 8.2750597e+00   7.4221548e+03
 8.2797403e+00   7.5434964e+03
 8.2844200e+00   7.6365280e+03
 8.2890997e+00   7.7623659e+03
 8.2937803e+00   7.8029229e+03
 8.2984600e+00   7.8867165e+03
 8.3031397e+00   7.8815333e+03
 8.3078203e+00   7.8613450e+03
 8.3125000e+00   7.7745435e+03
 8.3171797e+00   7.7027224e+03
 8.3218603e+00   7.5171673e+03
 8.3265400e+00   7.3582893e+03
 8.3312197e+00   7.1540829e+03
 8.3359003e+00   6.9899935e+03
 8.3405800e+00   6.7939019e+03
 8.3452597e+00   6.6337677e+03
 8.3499403e+00   6.4528094e+03
 8.3546200e+00   6.3635955e+03
 8.3592997e+00   6.2280664e+03
 8.3639803e+00   6.1707863e+03
 8.3686600e+00   6.1474080e+03
 8.3733397e+00   6.2112444e+03
 8.3780203e+00   6.3241692e+03
 8.3827000e+00   6.5490446e+03
 8.3873796e+00   6.7826699e+03
 8.3920603e+00   7.2435573e+03
 8.3967400e+00   7.8226283e+03
 8.4014196e+00   8.2503946e+03
 8.4061003e+00   8.6767078e+03
 8.4107800e+00   8.5873158e+03
 8.4154596e+00   8.2618772e+03
 8.4201403e+00   7.8849111e+03
 8.4248199e+00   7.1904472e+03
 8.4294996e+00   6.6851957e+03
 8.4341803e+00   6.3306020e+03
 8.4388599e+00   6.1294063e+03
 8.4435396e+00   5.9630088e+03
 8.4482203e+00   5.8168456e+03
 8.4528999e+00   5.7610757e+03
 8.4575796e+00   5.7391285e+03
 8.4622602e+00   5.7069697e+03
 8.4669399e+00   5.7252614e+03
 8.4716196e+00   5.7300456e+03
 8.4763002e+00   5.7672276e+03
 8.4809799e+00   5.7729561e+03
 8.4856596e+00   5.8203997e+03
 8.4903402e+00   5.8468348e+03
 8.4950199e+00   5.9159595e+03
 8.4996996e+00   5.9651555e+03
 8.5043802e+00   6.0216923e+03
 8.5090599e+00   6.0681373e+03
 8.5137396e+00   6.1742482e+03
 8.5184202e+00   6.2291694e+03
 8.5230999e+00   6.3441225e+03
 8.5277796e+00   6.4333140e+03
 8.5324602e+00   6.5428547e+03
 8.5371399e+00   6.6498725e+03
 8.5418196e+00   6.7726472e+03
 8.5465002e+00   6.8860904e+03
 8.5511799e+00   7.0207371e+03
 8.5558596e+00   7.1353905e+03
 8.5605402e+00   7.2387688e+03
 8.5652199e+00   7.3640289e+03
 8.5698996e+00   7.4271003e+03
 8.5745802e+00   7.5172317e+03
 8.5792599e+00   7.5536226e+03
 8.5839396e+00   7.6108518e+03
 8.5886202e+00   7.5773089e+03
 8.5932999e+00   7.5767143e+03
 8.5979795e+00   7.5058810e+03
 8.6026602e+00   7.4463601e+03
 8.6073399e+00   7.3384896e+03
 8.6120195e+00   7.2572917e+03
 8.6167002e+00   7.1400163e+03
 8.6213799e+00   7.0058068e+03
 8.6260595e+00   6.8984137e+03
 8.6307402e+00   6.7699698e+03
 8.6354198e+00   6.6729775e+03
 8.6400995e+00   6.5383722e+03
 8.6447802e+00   6.4456536e+03
 8.6494598e+00   6.3204014e+03
 8.6541405e+00   6.2385954e+03
 8.6588202e+00   6.1247738e+03
 8.6634998e+00   6.0582774e+03
 8.6681805e+00   5.9773732e+03
 8.6728601e+00   5.9031746e+03
 8.6775398e+00   5.8244214e+03
 8.6822205e+00   5.7670143e+03
 8.6869001e+00   5.7152861e+03
 8.6915798e+00   5.6687059e+03
 8.6962605e+00   5.6261319e+03
 8.7009401e+00   5.5731429e+03
 8.7056198e+00   5.5413558e+03
 8.7103004e+00   5.5074049e+03
 8.7149801e+00   5.4968863e+03
 8.7196598e+00   5.4498349e+03
 8.7243404e+00   5.4356061e+03
 8.7290201e+00   5.4090840e+03
 8.7336998e+00   5.3839065e+03
 8.7383804e+00   5.3444886e+03
 8.7430601e+00   5.3489648e+03
 8.7477398e+00   5.3213593e+03
 8.7524204e+00   5.3151727e+03
 8.7571001e+00   5.2854859e+03
 8.7617798e+00   5.2682608e+03
 8.7664604e+00   5.2572235e+03
 8.7711401e+00   5.2457536e+03
 8.7758198e+00   5.2375008e+03
 8.7805004e+00   5.2322186e+03
 8.7851801e+00   5.2161771e+03
 8.7898598e+00   5.2085008e+03
 8.7945404e+00   5.2048090e+03
 8.7992201e+00   5.1863204e+03
 8.8038998e+00   5.1915942e+03
 8.8085804e+00   5.1626069e+03
 8.8132601e+00   5.1648294e+03
 8.8179398e+00   5.1552326e+03
 8.8226204e+00   5.1500081e+03
 8.8273001e+00   5.1238234e+03
 8.8319798e+00   5.1375910e+03
 8.8366604e+00   5.1117019e+03
 8.8413401e+00   5.1192182e+03
 8.8460197e+00   5.0976246e+03
 8.8507004e+00   5.1016585e+03
 8.8553801e+00   5.0842181e+03
 8.8600597e+00   5.0612608e+03
 8.8647404e+00   5.0726300e+03
 8.8694201e+00   5.0521984e+03
 8.8740997e+00   5.0558963e+03
 8.8787804e+00   5.0412396e+03
 8.8834600e+00   5.0314594e+03
 8.8881397e+00   5.0224029e+03
 8.8928204e+00   5.0181284e+03
 8.8975000e+00   4.9994268e+03
 8.9021797e+00   5.0118061e+03
 8.9068604e+00   4.9944283e+03
 8.9115400e+00   4.9908567e+03
 8.9162197e+00   5.0004109e+03
 8.9209003e+00   4.9770704e+03
 8.9255800e+00   4.9939584e+03
 8.9302597e+00   4.9864628e+03
 8.9349403e+00   4.9754291e+03
 8.9396200e+00   4.9820042e+03
 8.9442997e+00   4.9755165e+03
 8.9489803e+00   4.9772199e+03
 8.9536600e+00   5.0022886e+03
 8.9583397e+00   4.9812252e+03
 8.9630203e+00   4.9805079e+03
 8.9677000e+00   4.9748987e+03
 8.9723797e+00   4.9816988e+03
 8.9770603e+00   4.9758588e+03
 8.9817400e+00   5.0010402e+03
 8.9864197e+00   4.9785323e+03
 8.9911003e+00   4.9826369e+03
 8.9957800e+00   4.9774953e+03
 9.0004597e+00   4.9829702e+03
 9.0051403e+00   4.9648038e+03
 9.0098200e+00   4.9649188e+03
 9.0144997e+00   4.9771107e+03
 9.0191803e+00   4.9648041e+03
 9.0238600e+00   4.9608234e+03
 9.0285397e+00   4.9658650e+03
 9.0332203e+00   4.9614819e+03
 9.0379000e+00   4.9571883e+03
 9.0425797e+00   4.9594713e+03
 9.0472603e+00   4.9507096e+03
 9.0519400e+00   4.9663364e+03
 9.0566196e+00   4.9429717e+03
 9.0613003e+00   4.9558874e+03
 9.0659800e+00   4.9513297e+03
 9.0706596e+00   4.9517627e+03
 9.0753403e+00   4.9410360e+03
 9.0800200e+00   4.9447465e+03
 9.0846996e+00   4.9371354e+03
 9.0893803e+00   4.9459873e+03
 9.0940599e+00   4.9574859e+03
 9.0987396e+00   4.9523212e+03
 9.1034203e+00   4.9584050e+03
 9.1080999e+00   4.9570742e+03
 9.1127796e+00   4.9773205e+03
 9.1174603e+00   4.9826953e+03
 9.1221399e+00   4.9838531e+03
 9.1268196e+00   4.9919875e+03
 9.1315002e+00   5.0080068e+03
 9.1361799e+00   4.9984206e+03
 9.1408596e+00   5.0303101e+03
 9.1455402e+00   5.0190465e+03
 9.1502199e+00   5.0453010e+03
 9.1548996e+00   5.0505845e+03
 9.1595802e+00   5.0687995e+03
 9.1642599e+00   5.0879383e+03
 9.1689396e+00   5.0969818e+03
 9.1736202e+00   5.1093462e+03
 9.1782999e+00   5.1317801e+03
 9.1829796e+00   5.1410397e+03
 9.1876602e+00   5.1608430e+03
 9.1923399e+00   5.1825065e+03
 9.1970196e+00   5.1945300e+03
 9.2017002e+00   5.2065413e+03
 9.2063799e+00   5.2213885e+03
 9.2110596e+00   5.2333561e+03
 9.2157402e+00   5.2567944e+03
 9.2204199e+00   5.2671126e+03
 9.2250996e+00   5.2688177e+03
 9.2297802e+00   5.2765891e+03
 9.2344599e+00   5.2863570e+03
 9.2391396e+00   5.2990791e+03
 9.2438202e+00   5.3120205e+03
 9.2484999e+00   5.3213164e+03
 9.2531796e+00   5.3422260e+03
 9.2578602e+00   5.3424387e+03
 9.2625399e+00   5.3756366e+03
 9.2672195e+00   5.3816020e+03
 9.2719002e+00   5.4030315e+03
 9.2765799e+00   5.4229038e+03
 9.2812595e+00   5.4378585e+03
 9.2859402e+00   5.4464319e+03
 9.2906199e+00   5.4914578e+03
 9.2952995e+00   5.5148164e+03
 9.2999802e+00   5.5377152e+03
 9.3046598e+00   5.5601396e+03
 9.3093395e+00   5.5933774e+03
 9.3140202e+00   5.6208260e+03
 9.3186998e+00   5.6304530e+03
 9.3233805e+00   5.6452411e+03
 9.3280602e+00   5.6847738e+03
 9.3327398e+00   5.6934880e+03
 9.3374205e+00   5.7122904e+03
 9.3421001e+00   5.7288503e+03
 9.3467798e+00   5.7151047e+03
 9.3514605e+00   5.7290305e+03
 9.3561401e+00   5.7071560e+03
 9.3608198e+00   5.7036192e+03
 9.3655005e+00   5.6789749e+03
 9.3701801e+00   5.6500778e+03
 9.3748598e+00   5.6214826e+03
 9.3795404e+00   5.5822036e+03
 9.3842201e+00   5.5398019e+03
 9.3888998e+00   5.5252577e+03
 9.3935804e+00   5.4748647e+03
 9.3982601e+00   5.4204305e+03
 9.4029398e+00   5.3994115e+03
 9.4076204e+00   5.3589345e+03
 9.4123001e+00   5.3195733e+03
 9.4169798e+00   5.2916397e+03
 9.4216604e+00   5.2626838e+03
 9.4263401e+00   5.2286410e+03
 9.4310198e+00   5.2095266e+03
 9.4357004e+00   5.1913213e+03
 9.4403801e+00   5.1784460e+03
 9.4450598e+00   5.1515598e+03
 9.4497404e+00   5.1486482e+03
 9.4544201e+00   5.1324681e+03
 9.4590998e+00   5.1271331e+03
 9.4637804e+00   5.1141241e+03
 9.4684601e+00   5.1113502e+03
 9.4731398e+00   5.1173387e+03
 9.4778204e+00   5.1122619e+03
 9.4825001e+00   5.1051849e+03
 9.4871798e+00   5.1117228e+03
 9.4918604e+00   5.1110207e+03
 9.4965401e+00   5.1128692e+03
 9.5012197e+00   5.1292408e+03
 9.5059004e+00   5.1237504e+03
 9.5105801e+00   5.1159027e+03
 9.5152597e+00   5.1286022e+03
 9.5199404e+00   5.1206735e+03
 9.5246201e+00   5.1139718e+03
 9.5292997e+00   5.1368441e+03
 9.5339804e+00   5.1270292e+03
 9.5386600e+00   5.1369495e+03
 9.5433397e+00   5.1404123e+03
 9.5480204e+00   5.1422826e+03
 9.5527000e+00   5.1588299e+03
 9.5573797e+00   5.1668393e+03
 9.5620604e+00   5.1906639e+03
 9.5667400e+00   5.1921366e+03
 9.5714197e+00   5.2118295e+03
 9.5761003e+00   5.2394094e+03
 9.5807800e+00   5.2493868e+03
 9.5854597e+00   5.2657151e+03
 9.5901403e+00   5.2871839e+03
 9.5948200e+00   5.2955273e+03
 9.5994997e+00   5.3140876e+03
 9.6041803e+00   5.3468280e+03
 9.6088600e+00   5.3588619e+03
 9.6135397e+00   5.3798486e+03
 9.6182203e+00   5.3873643e+03
 9.6229000e+00   5.3844058e+03
 9.6275797e+00   5.3994044e+03
 9.6322603e+00   5.4096693e+03
 9.6369400e+00   5.4169533e+03
 9.6416197e+00   5.4153725e+03
 9.6463003e+00   5.4181594e+03
 9.6509800e+00   5.4421549e+03
 9.6556597e+00   5.4399638e+03
 9.6603403e+00   5.4565417e+03
 9.6650200e+00   5.4782397e+03
 9.6696997e+00   5.4857593e+03
 9.6743803e+00   5.5154044e+03
 9.6790600e+00   5.5283513e+03
 9.6837397e+00   5.5427549e+03
 9.6884203e+00   5.5615089e+03
 9.6931000e+00   5.5552067e+03
 9.6977797e+00   5.5756466e+03
 9.7024603e+00   5.5783735e+03
 9.7071400e+00   5.5543597e+03
 9.7118196e+00   5.5527599e+03
 9.7165003e+00   5.5102393e+03
 9.7211800e+00   5.4687834e+03
 9.7258596e+00   5.4464006e+03
 9.7305403e+00   5.4001113e+03
 9.7352200e+00   5.3640652e+03
 9.7398996e+00   5.3173496e+03
 9.7445803e+00   5.2883443e+03
 9.7492599e+00   5.2617733e+03
 9.7539396e+00   5.2373313e+03
 9.7586203e+00   5.2110407e+03
 9.7632999e+00   5.1930404e+03
 9.7679796e+00   5.1854223e+03
 9.7726603e+00   5.1621188e+03
 9.7773399e+00   5.1801533e+03
 9.7820196e+00   5.1674588e+03
 9.7867002e+00   5.1823778e+03
 9.7913799e+00   5.1850659e+03
 9.7960596e+00   5.1934196e+03
 9.8007402e+00   5.2126215e+03
 9.8054199e+00   5.2641880e+03
 9.8100996e+00   5.3079747e+03
 9.8147802e+00   5.3836245e+03
 9.8194599e+00   5.5037695e+03
 9.8241396e+00   5.6889077e+03
 9.8288202e+00   5.9548236e+03
 9.8334999e+00   6.4391023e+03
 9.8381796e+00   7.1869006e+03
 9.8428602e+00   8.1406620e+03
 9.8475399e+00   9.5810432e+03
 9.8522196e+00   1.0634226e+04
 9.8569002e+00   1.2074648e+04
 9.8615799e+00   1.2562724e+04
 9.8662596e+00   1.2715682e+04
 9.8709402e+00   1.1779338e+04
 9.8756199e+00   1.0832680e+04
 9.8802996e+00   9.2668072e+03
 9.8849802e+00   8.0405362e+03
 9.8896599e+00   7.1205251e+03
 9.8943396e+00   6.4952907e+03
 9.8990202e+00   6.0414617e+03
 9.9036999e+00   5.7465243e+03
 9.9083796e+00   5.5776863e+03
 9.9130602e+00   5.4664933e+03
 9.9177399e+00   5.4105406e+03
 9.9224195e+00   5.3721415e+03
 9.9271002e+00   5.3506100e+03
 9.9317799e+00   5.3358434e+03
 9.9364595e+00   5.3276689e+03
 9.9411402e+00   5.3214383e+03
 9.9458199e+00   5.3130390e+03
 9.9504995e+00   5.3179174e+03
 9.9551802e+00   5.3194753e+03
 9.9598598e+00   5.3285019e+03
 9.9645395e+00   5.3355613e+03
 9.9692202e+00   5.3372035e+03
 9.9738998e+00   5.3387019e+03
 9.9785805e+00   5.3377387e+03
 9.9832602e+00   5.3488352e+03
 9.9879398e+00   5.3702500e+03
 9.9926205e+00   5.3620565e+03
 9.9973001e+00   5.3764897e+03
 1.0001980e+01   5.3668341e+03
 1.0006660e+01   5.3632361e+03
 1.0011340e+01   5.3564440e+03
 1.0016020e+01   5.3561858e+03
 1.0020700e+01   5.3439508e+03
 1.0025380e+01   5.3305842e+03
 1.0030060e+01   5.3208790e+03
 1.0034740e+01   5.3095901e+03
 1.0039420e+01   5.2998207e+03
 1.0044100e+01   5.2776236e+03
 1.0048780e+01   5.2838469e+03
 1.0053460e+01   5.2586879e+03
 1.0058140e+01   5.2617025e+03
 1.0062820e+01   5.2422394e+03
 1.0067500e+01   5.2575437e+03
 1.0072180e+01   5.2307453e+03
 1.0076860e+01   5.2447667e+03
 1.0081540e+01   5.2313860e+03
 1.0086220e+01   5.2371340e+03
 1.0090900e+01   5.2201256e+03
 1.0095580e+01   5.2299266e+03
 1.0100260e+01   5.2100135e+03
 1.0104940e+01   5.2177446e+03
 1.0109620e+01   5.2272375e+03
 1.0114300e+01   5.2174387e+03
 1.0118980e+01   5.2331314e+03
 1.0123660e+01   5.2319815e+03
 1.0128340e+01   5.2342761e+03
 1.0133020e+01   5.2309623e+03
 1.0137700e+01   5.2512818e+03
 1.0142380e+01   5.2536768e+03
 1.0147060e+01   5.2658261e+03
 1.0151740e+01   5.2698840e+03
 1.0156420e+01   5.2931886e+03
 1.0161100e+01   5.2991940e+03
 1.0165780e+01   5.3260357e+03
 1.0170460e+01   5.3488273e+03
 1.0175140e+01   5.3705696e+03
 1.0179820e+01   5.3964631e+03
 1.0184500e+01   5.4181906e+03
 1.0189180e+01   5.4316192e+03
 1.0193860e+01   5.4828939e+03
 1.0198540e+01   5.5070529e+03
 1.0203220e+01   5.5364842e+03
 1.0207900e+01   5.5890811e+03
 1.0212580e+01   5.6206748e+03
 1.0217260e+01   5.6579584e+03
 1.0221940e+01   5.6886053e+03
 1.0226620e+01   5.7209384e+03
 1.0231300e+01   5.7552678e+03
 1.0235980e+01   5.7887311e+03
 1.0240660e+01   5.7917828e+03
 1.0245340e+01   5.8194001e+03
 1.0250020e+01   5.8162338e+03
 1.0254700e+01   5.8578503e+03
 1.0259380e+01   5.8842665e+03
 1.0264060e+01   5.9546533e+03
 1.0268740e+01   6.0695795e+03
 1.0273420e+01   6.2550076e+03
 1.0278100e+01   6.5734907e+03
 1.0282780e+01   6.9360717e+03
 1.0287460e+01   7.4537887e+03
 1.0292140e+01   8.1306348e+03
 1.0296820e+01   8.5546546e+03
 1.0301500e+01   8.8080854e+03
 1.0306180e+01   8.5468998e+03
 1.0310860e+01   8.3864472e+03
 1.0315540e+01   7.7862182e+03
 1.0320220e+01   7.0634482e+03
 1.0324900e+01   6.5851527e+03
 1.0329580e+01   6.1475446e+03
 1.0334260e+01   5.8201856e+03
 1.0338940e+01   5.6049793e+03
 1.0343620e+01   5.4551208e+03
 1.0348300e+01   5.3894622e+03
 1.0352980e+01   5.3306618e+03
 1.0357660e+01   5.3133783e+03
 1.0362340e+01   5.2888468e+03
 1.0367020e+01   5.2799713e+03
 1.0371700e+01   5.2567524e+03
 1.0376380e+01   5.2632702e+03
 1.0381060e+01   5.2504471e+03
 1.0385740e+01   5.2657326e+03
 1.0390420e+01   5.2583890e+03
 1.0395100e+01   5.2678533e+03
 1.0399780e+01   5.2733965e+03
 1.0404460e+01   5.2790423e+03
 1.0409140e+01   5.3015542e+03
 1.0413820e+01   5.3109005e+03
 1.0418500e+01   5.3222898e+03
 1.0423180e+01   5.3217719e+03
 1.0427860e+01   5.3316621e+03
 1.0432540e+01   5.3528341e+03
 1.0437220e+01   5.3770346e+03
 1.0441900e+01   5.3876325e+03
 1.0446580e+01   5.4129173e+03
 1.0451260e+01   5.4224096e+03
 1.0455940e+01   5.4421790e+03
 1.0460620e+01   5.4568250e+03
 1.0465300e+01   5.4802158e+03
 1.0469980e+01   5.4914036e+03
 1.0474660e+01   5.4906395e+03
 1.0479340e+01   5.5171853e+03
 1.0484020e+01   5.5131608e+03
 1.0488700e+01   5.5118847e+03
 1.0493380e+01   5.5162430e+03
 1.0498060e+01   5.5059331e+03
 1.0502740e+01   5.5081417e+03
 1.0507420e+01   5.5029491e+03
 1.0512100e+01   5.4783574e+03
 1.0516780e+01   5.4673713e+03
 1.0521460e+01   5.4364849e+03
 1.0526140e+01   5.4281369e+03
 1.0530820e+01   5.4062754e+03
 1.0535500e+01   5.3909768e+03
 1.0540180e+01   5.3643513e+03
 1.0544860e+01   5.3620234e+03
 1.0549540e+01   5.3337634e+03
 1.0554220e+01   5.3178535e+03
 1.0558900e+01   5.3034987e+03
 1.0563580e+01   5.2807292e+03
 1.0568260e+01   5.2546896e+03
 1.0572940e+01   5.2401691e+03
 1.0577620e+01   5.2177822e+03
 1.0582300e+01   5.1957282e+03
 1.0586980e+01   5.1844155e+03
 1.0591660e+01   5.1633576e+03
 1.0596340e+01   5.1612715e+03
 1.0601020e+01   5.1426552e+03
 1.0605700e+01   5.1403779e+03
 1.0610380e+01   5.1242556e+03
 1.0615060e+01   5.1129087e+03
 1.0619740e+01   5.1069755e+03
 1.0624420e+01   5.1023864e+03
 1.0629100e+01   5.0982408e+03
 1.0633780e+01   5.0883287e+03
 1.0638460e+01   5.0741542e+03
 1.0643140e+01   5.0546232e+03
 1.0647820e+01   5.0582180e+03
 1.0652500e+01   5.0558643e+03
 1.0657180e+01   5.0560538e+03
 1.0661860e+01   5.0430383e+03
 1.0666540e+01   5.0435980e+03
 1.0671220e+01   5.0470128e+03
 1.0675900e+01   5.0386704e+03
 1.0680580e+01   5.0519712e+03
 1.0685260e+01   5.0413993e+03
 1.0689940e+01   5.0749580e+03
 1.0694620e+01   5.0634864e+03
 1.0699300e+01   5.0640875e+03
 1.0703980e+01   5.0724581e+03
 1.0708660e+01   5.0836342e+03
 1.0713340e+01   5.0873492e+03
 1.0718020e+01   5.1025422e+03
 1.0722700e+01   5.1117653e+03
 1.0727380e+01   5.1350917e+03
 1.0732060e+01   5.1303583e+03
 1.0736740e+01   5.1440844e+03
 1.0741420e+01   5.1572497e+03
 1.0746100e+01   5.1623429e+03
 1.0750780e+01   5.1790649e+03
 1.0755460e+01   5.1680329e+03
 1.0760140e+01   5.1684342e+03
 1.0764820e+01   5.1714429e+03
 1.0769500e+01   5.1745562e+03
 1.0774180e+01   5.1746549e+03
 1.0778860e+01   5.1796664e+03
 1.0783540e+01   5.1723243e+03
 1.0788220e+01   5.1771104e+03
 1.0792900e+01   5.1601765e+03
 1.0797580e+01   5.1575932e+03
 1.0802260e+01   5.1652868e+03
 1.0806940e+01   5.1691371e+03
 1.0811620e+01   5.1665623e+03
 1.0816300e+01   5.1545903e+03
 1.0820980e+01   5.1583473e+03
 1.0825660e+01   5.1431670e+03
 1.0830340e+01   5.1401234e+03
 1.0835020e+01   5.1354597e+03
 1.0839700e+01   5.1273419e+03
 1.0844380e+01   5.1224359e+03
 1.0849060e+01   5.1223096e+03
 1.0853740e+01   5.1074822e+03
 1.0858420e+01   5.0970789e+03
 1.0863100e+01   5.0861708e+03
 1.0867780e+01   5.0884217e+03
 1.0872460e+01   5.0605889e+03
 1.0877140e+01   5.0436715e+03
 1.0881820e+01   5.0361350e+03
 1.0886500e+01   5.0200896e+03
 1.0891180e+01   5.0032683e+03
 1.0895860e+01   4.9849420e+03
 1.0900540e+01   4.9766023e+03
 1.0905220e+01   4.9631059e+03
 1.0909900e+01   4.9608764e+03
 1.0914580e+01   4.9340904e+03
 1.0919260e+01   4.9289484e+03
 1.0923940e+01   4.9171151e+03
 1.0928620e+01   4.9131361e+03
 1.0933300e+01   4.9012521e+03
 1.0937980e+01   4.8984773e+03
 1.0942660e+01   4.8845640e+03
 1.0947340e+01   4.8762047e+03
 1.0952020e+01   4.8651584e+03
 1.0956700e+01   4.8491114e+03
 1.0961380e+01   4.8655633e+03
 1.0966060e+01   4.8446537e+03
 1.0970740e+01   4.8511328e+03
 1.0975420e+01   4.8443137e+03
 1.0980100e+01   4.8360237e+03
 1.0984780e+01   4.8223705e+03
 1.0989460e+01   4.8207878e+03
 1.0994140e+01   4.8093466e+03
 1.0998820e+01   4.8205391e+03
 1.1003500e+01   4.8075514e+03
 1.1008180e+01   4.7980649e+03
 1.1012860e+01   4.8164772e+03
 1.1017540e+01   4.7982424e+03
 1.1022220e+01   4.8133605e+03
 1.1026900e+01   4.8088709e+03
 1.1031580e+01   4.8046523e+03
 1.1036260e+01   4.8227913e+03
 1.1040940e+01   4.8249796e+03
 1.1045620e+01   4.8118454e+03
 1.1050300e+01   4.8205096e+03
 1.1054980e+01   4.8187215e+03
 1.1059660e+01   4.8364960e+03
 1.1064340e+01   4.8150274e+03
 1.1069020e+01   4.8174944e+03
 1.1073700e+01   4.8367023e+03
 1.1078380e+01   4.8301585e+03
 1.1083060e+01   4.8484788e+03
 1.1087740e+01   4.8432375e+03
 1.1092420e+01   4.8524520e+03
 1.1097100e+01   4.8617438e+03
 1.1101780e+01   4.8751843e+03
 1.1106460e+01   4.8679083e+03
 1.1111140e+01   4.8988152e+03
 1.1115820e+01   4.9003062e+03
 1.1120500e+01   4.9265490e+03
 1.1125180e+01   4.9234026e+03
 1.1129860e+01   4.9512432e+03
 1.1134540e+01   4.9542691e+03
 1.1139220e+01   4.9487481e+03
 1.1143900e+01   4.9555002e+03
 1.1148580e+01   4.9648674e+03
 1.1153260e+01   4.9773283e+03
 1.1157940e+01   4.9705046e+03
 1.1162620e+01   4.9672853e+03
 1.1167300e+01   4.9753597e+03
 1.1171980e+01   4.9824031e+03
 1.1176660e+01   4.9606234e+03
 1.1181340e+01   4.9662424e+03
 1.1186020e+01   4.9441953e+03
 1.1190700e+01   4.9575846e+03
 1.1195380e+01   4.9388184e+03
 1.1200060e+01   4.9184708e+03
 1.1204740e+01   4.9258924e+03
 1.1209420e+01   4.9159516e+03
 1.1214100e+01   4.9033999e+03
 1.1218780e+01   4.8829418e+03
 1.1223460e+01   4.8850032e+03
 1.1228140e+01   4.8657764e+03
 1.1232820e+01   4.8493153e+03
 1.1237500e+01   4.8294737e+03
 1.1242180e+01   4.8249961e+03
 1.1246860e+01   4.8019027e+03
 1.1251540e+01   4.7833488e+03
 1.1256220e+01   4.7701190e+03
 1.1260900e+01   4.7408011e+03
 1.1265580e+01   4.7233106e+03
 1.1270260e+01   4.7109064e+03
 1.1274940e+01   4.6925573e+03
 1.1279620e+01   4.6844398e+03
 1.1284300e+01   4.6814220e+03
 1.1288980e+01   4.6612777e+03
 1.1293660e+01   4.6635592e+03
 1.1298340e+01   4.6411535e+03
 1.1303020e+01   4.6441594e+03
 1.1307700e+01   4.6332736e+03
 1.1312380e+01   4.6239260e+03
 1.1317060e+01   4.6208702e+03
 1.1321740e+01   4.6158509e+03
 1.1326420e+01   4.6007566e+03
 1.1331100e+01   4.6134131e+03
 1.1335780e+01   4.5945535e+03
 1.1340460e+01   4.5891370e+03
 1.1345140e+01   4.5883569e+03
 1.1349820e+01   4.5732486e+03
 1.1354500e+01   4.5753156e+03
 1.1359180e+01   4.5686813e+03
 1.1363860e+01   4.5754828e+03
 1.1368540e+01   4.5643129e+03
 1.1373220e+01   4.5558059e+03
 1.1377900e+01   4.5575517e+03
 1.1382580e+01   4.5570682e+03
 1.1387260e+01   4.5525421e+03
 1.1391940e+01   4.5481948e+03
 1.1396620e+01   4.5344776e+03
 1.1401300e+01   4.5383651e+03
 1.1405980e+01   4.5343253e+03
 1.1410660e+01   4.5254715e+03
 1.1415340e+01   4.5322138e+03
 1.1420020e+01   4.5160734e+03
 1.1424700e+01   4.5187826e+03
 1.1429380e+01   4.5203181e+03
 1.1434060e+01   4.5073662e+03
 1.1438740e+01   4.5103857e+03
 1.1443420e+01   4.5073741e+03
 1.1448100e+01   4.5086331e+03
 1.1452780e+01   4.5060268e+03
 1.1457460e+01   4.4956231e+03
 1.1462140e+01   4.4953263e+03
 1.1466820e+01   4.5059244e+03
 1.1471500e+01   4.4777170e+03
 1.1476180e+01   4.4895167e+03
 1.1480860e+01   4.4827229e+03
 1.1485540e+01   4.4900687e+03
 1.1490220e+01   4.4844200e+03
 1.1494900e+01   4.4844983e+03
 1.1499580e+01   4.4741006e+03
 1.1504260e+01   4.4806944e+03
 1.1508940e+01   4.4697608e+03
 1.1513620e+01   4.4728335e+03
 1.1518300e+01   4.4701771e+03
 1.1522980e+01   4.4674423e+03
 1.1527660e+01   4.4666221e+03
 1.1532340e+01   4.4574803e+03
 1.1537020e+01   4.4717993e+03
 1.1541700e+01   4.4641560e+03
 1.1546380e+01   4.4572272e+03
 1.1551060e+01   4.4510818e+03
 1.1555740e+01   4.4555906e+03
 1.1560420e+01   4.4446599e+03
 1.1565100e+01   4.4457118e+03
 1.1569780e+01   4.4316918e+03
 1.1574460e+01   4.4447111e+03
 1.1579140e+01   4.4327103e+03
 1.1583820e+01   4.4366529e+03
 1.1588500e+01   4.4348141e+03
 1.1593180e+01   4.4276855e+03
 1.1597860e+01   4.4291302e+03
 1.1602540e+01   4.4276784e+03
 1.1607220e+01   4.4347412e+03
 1.1611900e+01   4.4339314e+03
 1.1616580e+01   4.4337650e+03
 1.1621260e+01   4.4344231e+03
 1.1625940e+01   4.4284874e+03
 1.1630620e+01   4.4280162e+03
 1.1635300e+01   4.4194808e+03
 1.1639980e+01   4.4218807e+03
 1.1644660e+01   4.4133569e+03
 1.1649340e+01   4.4151279e+03
 1.1654020e+01   4.4050375e+03
 1.1658700e+01   4.4095867e+03
 1.1663380e+01   4.4046210e+03
 1.1668060e+01   4.3958489e+03
 1.1672740e+01   4.4004982e+03
 1.1677420e+01   4.4009194e+03
 1.1682100e+01   4.3927115e+03
 1.1686780e+01   4.3874709e+03
 1.1691460e+01   4.3698069e+03
 1.1696140e+01   4.3882177e+03
 1.1700820e+01   4.3860066e+03
 1.1705500e+01   4.3800747e+03
 1.1710180e+01   4.3718008e+03
 1.1714860e+01   4.3780609e+03
 1.1719540e+01   4.3726443e+03
 1.1724220e+01   4.3740004e+03
 1.1728900e+01   4.3689272e+03
 1.1733580e+01   4.3631637e+03
 1.1738260e+01   4.3603236e+03
 1.1742940e+01   4.3733044e+03
 1.1747620e+01   4.3623719e+03
 1.1752300e+01   4.3655546e+03
 1.1756980e+01   4.3661059e+03
 1.1761660e+01   4.3662338e+03
 1.1766340e+01   4.3735412e+03
 1.1771020e+01   4.3704221e+03
 1.1775700e+01   4.3745666e+03
 1.1780380e+01   4.3755622e+03
 1.1785060e+01   4.3694536e+03
 1.1789740e+01   4.3746538e+03
 1.1794420e+01   4.3849925e+03
 1.1799100e+01   4.3712671e+03
 1.1803780e+01   4.3764537e+03
 1.1808460e+01   4.3786866e+03
 1.1813140e+01   4.3761000e+03
 1.1817820e+01   4.3863775e+03
 1.1822500e+01   4.3937128e+03
 1.1827180e+01   4.3925003e+03
 1.1831860e+01   4.4032738e+03
 1.1836540e+01   4.3987732e+03
 1.1841220e+01   4.4072760e+03
 1.1845900e+01   4.4221991e+03
 1.1850580e+01   4.4218272e+03
 1.1855260e+01   4.4503111e+03
 1.1859940e+01   4.4586163e+03
 1.1864620e+01   4.4888234e+03
 1.1869300e+01   4.5192699e+03
 1.1873980e+01   4.5761522e+03
 1.1878660e+01   4.6500831e+03
 1.1883340e+01   4.7192926e+03
 1.1888020e+01   4.8351919e+03
 1.1892700e+01   4.9442909e+03
 1.1897380e+01   5.0624522e+03
 1.1902060e+01   5.1274425e+03
 1.1906740e+01   5.1388481e+03
 1.1911420e+01   5.0914991e+03
 1.1916100e+01   5.0565765e+03
 1.1920780e+01   4.9434481e+03
 1.1925460e+01   4.8713891e+03
 1.1930140e+01   4.7936080e+03
 1.1934820e+01   4.7365478e+03
 1.1939500e+01   4.7242881e+03
 1.1944180e+01   4.6931557e+03
 1.1948860e+01   4.6750323e+03
 1.1953540e+01   4.6731711e+03
 1.1958220e+01   4.6827095e+03
 1.1962900e+01   4.6608458e+03
 1.1967580e+01   4.6762082e+03
 1.1972260e+01   4.6693319e+03
 1.1976940e+01   4.6816223e+03
 1.1981620e+01   4.6755495e+03
 1.1986300e+01   4.6621016e+03
 1.1990980e+01   4.6601278e+03
 1.1995660e+01   4.6431899e+03
 1.2000340e+01   4.6382096e+03
 1.2005020e+01   4.6279996e+03
 1.2009700e+01   4.6156234e+03
 1.2014380e+01   4.6018741e+03
 1.2019060e+01   4.5975740e+03
 1.2023740e+01   4.5744098e+03
 1.2028420e+01   4.5666652e+03
 1.2033100e+01   4.5414969e+03
 1.2037780e+01   4.5256006e+03
 1.2042460e+01   4.5078768e+03
 1.2047140e+01   4.4845142e+03
 1.2051820e+01   4.4822733e+03
 1.2056500e+01   4.4539569e+03
 1.2061180e+01   4.4485503e+03
 1.2065860e+01   4.4287028e+03
 1.2070540e+01   4.4220219e+03
 1.2075220e+01   4.4083258e+03
 1.2079900e+01   4.3971063e+03
 1.2084580e+01   4.3860127e+03
 1.2089260e+01   4.3768184e+03
 1.2093940e+01   4.3631178e+03
 1.2098620e+01   4.3486941e+03
 1.2103300e+01   4.3375822e+03
 1.2107980e+01   4.3377473e+03
 1.2112660e+01   4.3241440e+03
 1.2117340e+01   4.3088422e+03
 1.2122020e+01   4.3045456e+03
 1.2126700e+01   4.2882646e+03
 1.2131380e+01   4.2842739e+03
 1.2136060e+01   4.2628855e+03
 1.2140740e+01   4.2652384e+03
 1.2145420e+01   4.2448483e+03
 1.2150100e+01   4.2421233e+03
 1.2154780e+01   4.2256404e+03
 1.2159460e+01   4.2274629e+03
 1.2164140e+01   4.2129402e+03
 1.2168820e+01   4.2024460e+03
 1.2173500e+01   4.2057444e+03
 1.2178180e+01   4.1835933e+03
 1.2182860e+01   4.1775011e+03
 1.2187540e+01   4.1795368e+03
 1.2192220e+01   4.1633199e+03
 1.2196900e+01   4.1671111e+03
 1.2201580e+01   4.1642614e+03
 1.2206260e+01   4.1545124e+03
 1.2210940e+01   4.1622715e+03
 1.2215620e+01   4.1428931e+03
 1.2220300e+01   4.1514419e+03
 1.2224980e+01   4.1471313e+03
 1.2229660e+01   4.1306099e+03
 1.2234340e+01   4.1286591e+03
 1.2239020e+01   4.1349736e+03
 1.2243700e+01   4.1270860e+03
 1.2248380e+01   4.1158458e+03
 1.2253060e+01   4.1241358e+03
 1.2257740e+01   4.1194806e+03
 1.2262420e+01   4.1258775e+03
 1.2267100e+01   4.1113556e+03
 1.2271780e+01   4.1131113e+03
 1.2276460e+01   4.1236061e+03
 1.2281140e+01   4.1131310e+03
 1.2285820e+01   4.1085355e+03
 1.2290500e+01   4.1019770e+03
 1.2295180e+01   4.1092838e+03
 1.2299860e+01   4.0982141e+03
 1.2304540e+01   4.1102596e+03
 1.2309220e+01   4.1097182e+03
 1.2313900e+01   4.1062380e+03
 1.2318580e+01   4.1023258e+03
 1.2323260e+01   4.1020450e+03
 1.2327940e+01   4.1052109e+03
 1.2332620e+01   4.1099536e+03
 1.2337300e+01   4.1249473e+03
 1.2341980e+01   4.1116167e+03
 1.2346660e+01   4.1208308e+03
 1.2351340e+01   4.1228754e+03
 1.2356020e+01   4.1336833e+03
 1.2360700e+01   4.1291806e+03
 1.2365380e+01   4.1302555e+03
 1.2370060e+01   4.1433120e+03
 1.2374740e+01   4.1441655e+03
 1.2379420e+01   4.1545585e+03
 1.2384100e+01   4.1494225e+03
 1.2388780e+01   4.1599965e+03
 1.2393460e+01   4.1602041e+03
 1.2398140e+01   4.1624812e+03
 1.2402820e+01   4.1602835e+03
 1.2407500e+01   4.1654300e+03
 1.2412180e+01   4.1596641e+03
 1.2416860e+01   4.1673908e+03
 1.2421540e+01   4.1698537e+03
 1.2426220e+01   4.1718776e+03
 1.2430900e+01   4.1674460e+03
 1.2435580e+01   4.1725894e+03
 1.2440260e+01   4.1635770e+03
 1.2444940e+01   4.1747592e+03
 1.2449620e+01   4.1716490e+03
 1.2454300e+01   4.1537892e+03
 1.2458980e+01   4.1670312e+03
 1.2463660e+01   4.1499580e+03
 1.2468340e+01   4.1516639e+03
 1.2473020e+01   4.1423638e+03
 1.2477700e+01   4.1512759e+03
 1.2482380e+01   4.1337634e+03
 1.2487060e+01   4.1366182e+03
 1.2491740e+01   4.1227927e+03
 1.2496420e+01   4.1174005e+03
 1.2501100e+01   4.1107213e+03
 1.2505780e+01   4.1200083e+03
 1.2510460e+01   4.1131975e+03
 1.2515140e+01   4.1054994e+03
 1.2519820e+01   4.1012501e+03
 1.2524500e+01   4.0957760e+03
 1.2529180e+01   4.0882837e+03
 1.2533860e+01   4.0901324e+03
 1.2538540e+01   4.0800574e+03
 1.2543220e+01   4.0815397e+03
 1.2547900e+01   4.0811751e+03
 1.2552580e+01   4.0780346e+03
 1.2557260e+01   4.0793032e+03
 1.2561940e+01   4.0808027e+03
 1.2566620e+01   4.0742296e+03
 1.2571300e+01   4.0752656e+03
 1.2575980e+01   4.0690367e+03
 1.2580660e+01   4.0639170e+03
 1.2585340e+01   4.0750506e+03
 1.2590020e+01   4.0752063e+03
 1.2594700e+01   4.0760653e+03
 1.2599380e+01   4.0836616e+03
 1.2604060e+01   4.0840284e+03
 1.2608740e+01   4.0746704e+03
 1.2613420e+01   4.0886760e+03
 1.2618100e+01   4.0875498e+03
 1.2622780e+01   4.0972937e+03
 1.2627460e+01   4.0930897e+03
 1.2632140e+01   4.1056183e+03
 1.2636820e+01   4.1133618e+03
 1.2641500e+01   4.1201858e+03
 1.2646180e+01   4.1250035e+03
 1.2650860e+01   4.1284037e+03
 1.2655540e+01   4.1462084e+03
 1.2660220e+01   4.1635935e+03
 1.2664900e+01   4.1690819e+03
 1.2669580e+01   4.1771714e+03
 1.2674260e+01   4.1839443e+03
 1.2678940e+01   4.1920818e+03
 1.2683620e+01   4.2050397e+03
 1.2688300e+01   4.2152722e+03
 1.2692980e+01   4.2278494e+03
 1.2697660e+01   4.2387138e+03
