MA2b-00003.tif Azm= 0.00
2-Theta Angle (Degrees)
Intensity
       2500
 1.0023400e+00   7.9797655e+03
 1.0070200e+00   7.9295379e+03
 1.0117000e+00   7.8865198e+03
 1.0163800e+00   7.9110899e+03
 1.0210600e+00   7.8337760e+03
 1.0257400e+00   7.7998448e+03
 1.0304199e+00   7.7892083e+03
 1.0351000e+00   7.7768988e+03
 1.0397800e+00   7.7263280e+03
 1.0444601e+00   7.7105973e+03
 1.0491400e+00   7.6636842e+03
 1.0538200e+00   7.6816456e+03
 1.0585001e+00   7.6479309e+03
 1.0631800e+00   7.6448353e+03
 1.0678600e+00   7.6295959e+03
 1.0725400e+00   7.5526717e+03
 1.0772200e+00   7.5263622e+03
 1.0819000e+00   7.5429937e+03
 1.0865800e+00   7.5238809e+03
 1.0912600e+00   7.5010830e+03
 1.0959400e+00   7.4920474e+03
 1.1006200e+00   7.4989723e+03
 1.1052999e+00   7.4558821e+03
 1.1099800e+00   7.4275861e+03
 1.1146600e+00   7.4054428e+03
 1.1193399e+00   7.4204054e+03
 1.1240200e+00   7.3833436e+03
 1.1287000e+00   7.3802068e+03
 1.1333801e+00   7.3852995e+03
 1.1380600e+00   7.3529556e+03
 1.1427400e+00   7.3469020e+03
 1.1474200e+00   7.2702562e+03
 1.1521000e+00   7.3067865e+03
 1.1567800e+00   7.3141127e+03
 1.1614600e+00   7.2670363e+03
 1.1661400e+00   7.2543462e+03
 1.1708200e+00   7.2698222e+03
 1.1755000e+00   7.2312329e+03
 1.1801800e+00   7.2208171e+03
 1.1848600e+00   7.2224132e+03
 1.1895400e+00   7.2131677e+03
 1.1942199e+00   7.2123169e+03
 1.1989000e+00   7.2214863e+03
 1.2035800e+00   7.1801058e+03
 1.2082601e+00   7.1959366e+03
 1.2129400e+00   7.1659790e+03
 1.2176200e+00   7.1695815e+03
 1.2223001e+00   7.1823481e+03
 1.2269800e+00   7.1523034e+03
 1.2316600e+00   7.1705301e+03
 1.2363400e+00   7.1799190e+03
 1.2410200e+00   7.1363879e+03
 1.2457000e+00   7.1467490e+03
 1.2503800e+00   7.1474687e+03
 1.2550600e+00   7.1337020e+03
 1.2597400e+00   7.1344416e+03
 1.2644200e+00   7.1135798e+03
 1.2691000e+00   7.1339179e+03
 1.2737800e+00   7.1129752e+03
 1.2784600e+00   7.1172450e+03
 1.2831399e+00   7.0722301e+03
 1.2878200e+00   7.1476392e+03
 1.2925000e+00   7.1348233e+03
 1.2971801e+00   7.1122011e+03
 1.3018600e+00   7.1586738e+03
 1.3065400e+00   7.1586611e+03
 1.3112200e+00   7.1545128e+03
 1.3159000e+00   7.1522679e+03
 1.3205800e+00   7.1570636e+03
 1.3252600e+00   7.1789479e+03
 1.3299400e+00   7.1948386e+03
 1.3346200e+00   7.1745347e+03
 1.3393000e+00   7.1793361e+03
 1.3439800e+00   7.1609245e+03
 1.3486600e+00   7.2061221e+03
 1.3533400e+00   7.1710411e+03
 1.3580199e+00   7.2398390e+03
 1.3627000e+00   7.2185624e+03
 1.3673800e+00   7.2354880e+03
 1.3720599e+00   7.2162980e+03
 1.3767400e+00   7.2267873e+03
 1.3814200e+00   7.2224572e+03
 1.3861001e+00   7.2724661e+03
 1.3907800e+00   7.2546833e+03
 1.3954600e+00   7.2973058e+03
 1.4001400e+00   7.2879878e+03
 1.4048200e+00   7.2963618e+03
 1.4095000e+00   7.3297424e+03
 1.4141800e+00   7.3409624e+03
 1.4188600e+00   7.3233008e+03
 1.4235400e+00   7.3680018e+03
 1.4282200e+00   7.3669184e+03
 1.4329000e+00   7.4173871e+03
 1.4375800e+00   7.4376622e+03
 1.4422600e+00   7.4480323e+03
 1.4469399e+00   7.4604580e+03
 1.4516200e+00   7.5237985e+03
 1.4563000e+00   7.5118164e+03
 1.4609801e+00   7.5445425e+03
 1.4656600e+00   7.5881863e+03
 1.4703400e+00   7.5991160e+03
 1.4750201e+00   7.6399556e+03
 1.4797000e+00   7.6713325e+03
 1.4843800e+00   7.7111182e+03
 1.4890600e+00   7.6980763e+03
 1.4937400e+00   7.7243864e+03
 1.4984200e+00   7.7552091e+03
 1.5031000e+00   7.7445055e+03
 1.5077800e+00   7.7746083e+03
 1.5124600e+00   7.7868765e+03
 1.5171400e+00   7.7836428e+03
 1.5218199e+00   7.8143959e+03
 1.5265000e+00   7.8067627e+03
 1.5311800e+00   7.8160371e+03
 1.5358599e+00   7.7997115e+03
 1.5405400e+00   7.8026387e+03
 1.5452200e+00   7.8055557e+03
 1.5499001e+00   7.8005822e+03
 1.5545800e+00   7.7715626e+03
 1.5592600e+00   7.7526030e+03
 1.5639400e+00   7.7531946e+03
 1.5686200e+00   7.7660448e+03
 1.5733000e+00   7.7474175e+03
 1.5779800e+00   7.7411345e+03
 1.5826600e+00   7.7407612e+03
 1.5873400e+00   7.7585104e+03
 1.5920200e+00   7.7135961e+03
 1.5967000e+00   7.7396853e+03
 1.6013800e+00   7.7173181e+03
 1.6060600e+00   7.7207095e+03
 1.6107399e+00   7.7116615e+03
 1.6154200e+00   7.7543756e+03
 1.6201000e+00   7.7057314e+03
 1.6247801e+00   7.7135495e+03
 1.6294600e+00   7.7246687e+03
 1.6341400e+00   7.7200963e+03
 1.6388201e+00   7.7446986e+03
 1.6435000e+00   7.7385820e+03
 1.6481800e+00   7.7117226e+03
 1.6528600e+00   7.7138324e+03
 1.6575400e+00   7.7420884e+03
 1.6622200e+00   7.7224229e+03
 1.6669000e+00   7.7233088e+03
 1.6715800e+00   7.7179565e+03
 1.6762600e+00   7.7317928e+03
 1.6809400e+00   7.7361701e+03
 1.6856200e+00   7.7323000e+03
 1.6903000e+00   7.7050472e+03
 1.6949800e+00   7.7481036e+03
 1.6996599e+00   7.7284843e+03
 1.7043400e+00   7.7553848e+03
 1.7090200e+00   7.7375578e+03
 1.7137001e+00   7.7669054e+03
 1.7183800e+00   7.7493306e+03
 1.7230600e+00   7.7838011e+03
 1.7277400e+00   7.7740409e+03
 1.7324200e+00   7.8022577e+03
 1.7371000e+00   7.7450067e+03
 1.7417800e+00   7.7878582e+03
 1.7464600e+00   7.7768918e+03
 1.7511400e+00   7.7895464e+03
 1.7558200e+00   7.7940479e+03
 1.7605000e+00   7.7889195e+03
 1.7651800e+00   7.8060007e+03
 1.7698600e+00   7.8198988e+03
 1.7745399e+00   7.8148710e+03
 1.7792200e+00   7.8257169e+03
 1.7839000e+00   7.8560811e+03
 1.7885799e+00   7.8371905e+03
 1.7932600e+00   7.8748859e+03
 1.7979400e+00   7.8883073e+03
 1.8026201e+00   7.8856024e+03
 1.8073000e+00   7.9116520e+03
 1.8119800e+00   7.9307630e+03
 1.8166600e+00   7.9288530e+03
 1.8213400e+00   7.9702179e+03
 1.8260200e+00   7.9546023e+03
 1.8307000e+00   7.9736405e+03
 1.8353800e+00   7.9978115e+03
 1.8400600e+00   8.0351602e+03
 1.8447400e+00   8.0438257e+03
 1.8494200e+00   8.0526250e+03
 1.8541000e+00   8.0875403e+03
 1.8587800e+00   8.1094728e+03
 1.8634599e+00   8.1541573e+03
 1.8681400e+00   8.1338657e+03
 1.8728200e+00   8.1818730e+03
 1.8775001e+00   8.1722223e+03
 1.8821800e+00   8.2172839e+03
 1.8868600e+00   8.2317402e+03
 1.8915401e+00   8.2535552e+03
 1.8962200e+00   8.2529001e+03
 1.9009000e+00   8.2549178e+03
 1.9055800e+00   8.3106067e+03
 1.9102600e+00   8.3237438e+03
 1.9149400e+00   8.3607151e+03
 1.9196200e+00   8.3751009e+03
 1.9243000e+00   8.4094227e+03
 1.9289800e+00   8.4302994e+03
 1.9336600e+00   8.4528265e+03
 1.9383399e+00   8.4966468e+03
 1.9430200e+00   8.4959519e+03
 1.9477000e+00   8.5279400e+03
 1.9523799e+00   8.5186209e+03
 1.9570600e+00   8.5752676e+03
 1.9617400e+00   8.6118114e+03
 1.9664201e+00   8.6477150e+03
 1.9711000e+00   8.6315368e+03
 1.9757800e+00   8.6860490e+03
 1.9804600e+00   8.6963527e+03
 1.9851400e+00   8.7297735e+03
 1.9898200e+00   8.7927728e+03
 1.9945000e+00   8.7799658e+03
 1.9991800e+00   8.8169606e+03
 2.0038600e+00   8.8199632e+03
 2.0085399e+00   8.8596982e+03
 2.0132201e+00   8.8705221e+03
 2.0179000e+00   8.9026355e+03
 2.0225799e+00   8.9051336e+03
 2.0272601e+00   8.9697618e+03
 2.0319400e+00   8.9858570e+03
 2.0366199e+00   9.0074149e+03
 2.0413001e+00   9.0398253e+03
 2.0459800e+00   9.0606363e+03
 2.0506599e+00   9.1054956e+03
 2.0553401e+00   9.1273507e+03
 2.0600200e+00   9.1602547e+03
 2.0646999e+00   9.2045283e+03
 2.0693800e+00   9.2490832e+03
 2.0740600e+00   9.2783549e+03
 2.0787399e+00   9.3642314e+03
 2.0834200e+00   9.4337589e+03
 2.0881000e+00   9.5225160e+03
 2.0927801e+00   9.6514204e+03
 2.0974600e+00   9.8232212e+03
 2.1021399e+00   9.9906464e+03
 2.1068201e+00   1.0203758e+04
 2.1115000e+00   1.0609680e+04
 2.1161799e+00   1.1110540e+04
 2.1208601e+00   1.1863558e+04
 2.1255400e+00   1.2892368e+04
 2.1302199e+00   1.4306250e+04
 2.1349001e+00   1.6036195e+04
 2.1395800e+00   1.7977343e+04
 2.1442599e+00   2.0014137e+04
 2.1489401e+00   2.1994629e+04
 2.1536200e+00   2.3449747e+04
 2.1582999e+00   2.4423041e+04
 2.1629801e+00   2.5019153e+04
 2.1676600e+00   2.5236434e+04
 2.1723399e+00   2.5029120e+04
 2.1770201e+00   2.4511632e+04
 2.1817000e+00   2.3755258e+04
 2.1863799e+00   2.2772507e+04
 2.1910601e+00   2.1505987e+04
 2.1957400e+00   2.0244866e+04
 2.2004199e+00   1.8920906e+04
 2.2051001e+00   1.7695849e+04
 2.2097800e+00   1.6636535e+04
 2.2144599e+00   1.5771414e+04
 2.2191401e+00   1.5039029e+04
 2.2238200e+00   1.4492711e+04
 2.2284999e+00   1.4063077e+04
 2.2331800e+00   1.3698832e+04
 2.2378600e+00   1.3401085e+04
 2.2425399e+00   1.3086741e+04
 2.2472200e+00   1.2729046e+04
 2.2519000e+00   1.2366637e+04
 2.2565801e+00   1.1970220e+04
 2.2612600e+00   1.1621246e+04
 2.2659400e+00   1.1304476e+04
 2.2706201e+00   1.1059259e+04
 2.2753000e+00   1.0869675e+04
 2.2799799e+00   1.0757416e+04
 2.2846601e+00   1.0630241e+04
 2.2893400e+00   1.0580321e+04
 2.2940199e+00   1.0564863e+04
 2.2987001e+00   1.0523267e+04
 2.3033800e+00   1.0526301e+04
 2.3080599e+00   1.0538915e+04
 2.3127401e+00   1.0546282e+04
 2.3174200e+00   1.0550842e+04
 2.3220999e+00   1.0571353e+04
 2.3267801e+00   1.0591855e+04
 2.3314600e+00   1.0614111e+04
 2.3361399e+00   1.0662869e+04
 2.3408201e+00   1.0681317e+04
 2.3455000e+00   1.0697784e+04
 2.3501799e+00   1.0709779e+04
 2.3548601e+00   1.0712639e+04
 2.3595400e+00   1.0756020e+04
 2.3642199e+00   1.0792419e+04
 2.3689001e+00   1.0824291e+04
 2.3735800e+00   1.0857603e+04
 2.3782599e+00   1.0858296e+04
 2.3829401e+00   1.0903440e+04
 2.3876200e+00   1.0931224e+04
 2.3922999e+00   1.0968027e+04
 2.3969800e+00   1.1026049e+04
 2.4016600e+00   1.1039620e+04
 2.4063399e+00   1.1076063e+04
 2.4110200e+00   1.1096622e+04
 2.4157000e+00   1.1144125e+04
 2.4203801e+00   1.1186570e+04
 2.4250600e+00   1.1228073e+04
 2.4297400e+00   1.1258441e+04
 2.4344201e+00   1.1292874e+04
 2.4391000e+00   1.1334839e+04
 2.4437799e+00   1.1374117e+04
 2.4484601e+00   1.1416348e+04
 2.4531400e+00   1.1465425e+04
 2.4578199e+00   1.1492030e+04
 2.4625001e+00   1.1507004e+04
 2.4671800e+00   1.1553409e+04
 2.4718599e+00   1.1584319e+04
 2.4765401e+00   1.1615276e+04
 2.4812200e+00   1.1676231e+04
 2.4858999e+00   1.1679960e+04
 2.4905801e+00   1.1715559e+04
 2.4952600e+00   1.1774527e+04
 2.4999399e+00   1.1796241e+04
 2.5046201e+00   1.1860064e+04
 2.5093000e+00   1.1874713e+04
 2.5139799e+00   1.1938115e+04
 2.5186601e+00   1.1974125e+04
 2.5233400e+00   1.1989954e+04
 2.5280199e+00   1.2035117e+04
 2.5327001e+00   1.2067194e+04
 2.5373800e+00   1.2110313e+04
 2.5420599e+00   1.2143738e+04
 2.5467401e+00   1.2167762e+04
 2.5514200e+00   1.2194869e+04
 2.5560999e+00   1.2222913e+04
 2.5607800e+00   1.2277469e+04
 2.5654600e+00   1.2292245e+04
 2.5701399e+00   1.2322245e+04
 2.5748200e+00   1.2351266e+04
 2.5795000e+00   1.2365554e+04
 2.5841801e+00   1.2408980e+04
 2.5888600e+00   1.2436368e+04
 2.5935400e+00   1.2476266e+04
 2.5982201e+00   1.2496338e+04
 2.6029000e+00   1.2510364e+04
 2.6075799e+00   1.2547570e+04
 2.6122601e+00   1.2582755e+04
 2.6169400e+00   1.2582424e+04
 2.6216199e+00   1.2608956e+04
 2.6263001e+00   1.2631849e+04
 2.6309800e+00   1.2671422e+04
 2.6356599e+00   1.2670760e+04
 2.6403401e+00   1.2706776e+04
 2.6450200e+00   1.2707170e+04
 2.6496999e+00   1.2753363e+04
 2.6543801e+00   1.2751607e+04
 2.6590600e+00   1.2765342e+04
 2.6637399e+00   1.2769056e+04
 2.6684201e+00   1.2789577e+04
 2.6731000e+00   1.2780848e+04
 2.6777799e+00   1.2814579e+04
 2.6824601e+00   1.2811144e+04
 2.6871400e+00   1.2830067e+04
 2.6918199e+00   1.2825878e+04
 2.6965001e+00   1.2819753e+04
 2.7011800e+00   1.2841521e+04
 2.7058599e+00   1.2871186e+04
 2.7105401e+00   1.2872756e+04
 2.7152200e+00   1.2877018e+04
 2.7198999e+00   1.2869735e+04
 2.7245800e+00   1.2881161e+04
 2.7292600e+00   1.2905283e+04
 2.7339399e+00   1.2880645e+04
 2.7386200e+00   1.2899036e+04
 2.7433000e+00   1.2882082e+04
 2.7479801e+00   1.2856474e+04
 2.7526600e+00   1.2875871e+04
 2.7573400e+00   1.2848219e+04
 2.7620201e+00   1.2846078e+04
 2.7667000e+00   1.2851659e+04
 2.7713799e+00   1.2837937e+04
 2.7760601e+00   1.2823427e+04
 2.7807400e+00   1.2836106e+04
 2.7854199e+00   1.2815199e+04
 2.7901001e+00   1.2823472e+04
 2.7947800e+00   1.2823348e+04
 2.7994599e+00   1.2778783e+04
 2.8041401e+00   1.2792013e+04
 2.8088200e+00   1.2758883e+04
 2.8134999e+00   1.2769453e+04
 2.8181801e+00   1.2749916e+04
 2.8228600e+00   1.2723960e+04
 2.8275399e+00   1.2744257e+04
 2.8322201e+00   1.2688142e+04
 2.8369000e+00   1.2679025e+04
 2.8415799e+00   1.2698983e+04
 2.8462601e+00   1.2666677e+04
 2.8509400e+00   1.2661245e+04
 2.8556199e+00   1.2642071e+04
 2.8603001e+00   1.2615194e+04
 2.8649800e+00   1.2609611e+04
 2.8696599e+00   1.2583730e+04
 2.8743401e+00   1.2566768e+04
 2.8790200e+00   1.2568416e+04
 2.8836999e+00   1.2519136e+04
 2.8883801e+00   1.2510667e+04
 2.8930600e+00   1.2496328e+04
 2.8977399e+00   1.2478214e+04
 2.9024200e+00   1.2450890e+04
 2.9071000e+00   1.2442116e+04
 2.9117801e+00   1.2417348e+04
 2.9164600e+00   1.2414545e+04
 2.9211400e+00   1.2380339e+04
 2.9258201e+00   1.2383363e+04
 2.9305000e+00   1.2338094e+04
 2.9351799e+00   1.2331294e+04
 2.9398601e+00   1.2287135e+04
 2.9445400e+00   1.2304269e+04
 2.9492199e+00   1.2270785e+04
 2.9539001e+00   1.2252599e+04
 2.9585800e+00   1.2236824e+04
 2.9632599e+00   1.2204265e+04
 2.9679401e+00   1.2184141e+04
 2.9726200e+00   1.2165668e+04
 2.9772999e+00   1.2147822e+04
 2.9819801e+00   1.2107116e+04
 2.9866600e+00   1.2089978e+04
 2.9913399e+00   1.2065347e+04
 2.9960201e+00   1.2037828e+04
 3.0007000e+00   1.2009821e+04
 3.0053799e+00   1.1977245e+04
 3.0100601e+00   1.1949516e+04
 3.0147400e+00   1.1927955e+04
 3.0194199e+00   1.1928338e+04
 3.0241001e+00   1.1878656e+04
 3.0287800e+00   1.1883713e+04
 3.0334599e+00   1.1846227e+04
 3.0381401e+00   1.1815420e+04
 3.0428200e+00   1.1768896e+04
 3.0474999e+00   1.1739657e+04
 3.0521801e+00   1.1702183e+04
 3.0568600e+00   1.1651654e+04
 3.0615399e+00   1.1662108e+04
 3.0662200e+00   1.1611735e+04
 3.0709000e+00   1.1600023e+04
 3.0755799e+00   1.1541625e+04
 3.0802600e+00   1.1552163e+04
 3.0849400e+00   1.1521357e+04
 3.0896201e+00   1.1486031e+04
 3.0943000e+00   1.1443235e+04
 3.0989799e+00   1.1447928e+04
 3.1036601e+00   1.1425602e+04
 3.1083400e+00   1.1413494e+04
 3.1130199e+00   1.1394266e+04
 3.1177001e+00   1.1365997e+04
 3.1223800e+00   1.1339003e+04
 3.1270599e+00   1.1320275e+04
 3.1317401e+00   1.1304583e+04
 3.1364200e+00   1.1282389e+04
 3.1410999e+00   1.1252703e+04
 3.1457801e+00   1.1233469e+04
 3.1504600e+00   1.1227142e+04
 3.1551399e+00   1.1219976e+04
 3.1598201e+00   1.1193972e+04
 3.1645000e+00   1.1156620e+04
 3.1691799e+00   1.1173077e+04
 3.1738601e+00   1.1109209e+04
 3.1785400e+00   1.1105203e+04
 3.1832199e+00   1.1095701e+04
 3.1879001e+00   1.1082299e+04
 3.1925800e+00   1.1059506e+04
 3.1972599e+00   1.1068755e+04
 3.2019401e+00   1.1068755e+04
 3.2066200e+00   1.1043314e+04
 3.2112999e+00   1.1015548e+04
 3.2159801e+00   1.0978875e+04
 3.2206600e+00   1.0979055e+04
 3.2253399e+00   1.0967241e+04
 3.2300200e+00   1.0939230e+04
 3.2347000e+00   1.0946332e+04
 3.2393799e+00   1.0927873e+04
 3.2440600e+00   1.0892126e+04
 3.2487400e+00   1.0896394e+04
 3.2534201e+00   1.0894219e+04
 3.2581000e+00   1.0870880e+04
 3.2627800e+00   1.0873684e+04
 3.2674601e+00   1.0859011e+04
 3.2721400e+00   1.0841359e+04
 3.2768199e+00   1.0838410e+04
 3.2815001e+00   1.0818302e+04
 3.2861800e+00   1.0832139e+04
 3.2908599e+00   1.0793651e+04
 3.2955401e+00   1.0835284e+04
 3.3002200e+00   1.0808606e+04
 3.3048999e+00   1.0800207e+04
 3.3095801e+00   1.0776699e+04
 3.3142600e+00   1.0786087e+04
 3.3189399e+00   1.0779300e+04
 3.3236201e+00   1.0801799e+04
 3.3283000e+00   1.0770976e+04
 3.3329799e+00   1.0789506e+04
 3.3376601e+00   1.0765135e+04
 3.3423400e+00   1.0775560e+04
 3.3470199e+00   1.0742141e+04
 3.3517001e+00   1.0774774e+04
 3.3563800e+00   1.0719942e+04
 3.3610599e+00   1.0757986e+04
 3.3657401e+00   1.0758441e+04
 3.3704200e+00   1.0744531e+04
 3.3750999e+00   1.0731217e+04
 3.3797801e+00   1.0745207e+04
 3.3844600e+00   1.0713804e+04
 3.3891399e+00   1.0723134e+04
 3.3938200e+00   1.0743687e+04
 3.3985000e+00   1.0745299e+04
 3.4031799e+00   1.0732101e+04
 3.4078600e+00   1.0709118e+04
 3.4125400e+00   1.0749715e+04
 3.4172201e+00   1.0735500e+04
 3.4219000e+00   1.0751379e+04
 3.4265800e+00   1.0764796e+04
 3.4312601e+00   1.0766948e+04
 3.4359400e+00   1.0765656e+04
 3.4406199e+00   1.0769955e+04
 3.4453001e+00   1.0737652e+04
 3.4499800e+00   1.0765439e+04
 3.4546599e+00   1.0762829e+04
 3.4593401e+00   1.0760681e+04
 3.4640200e+00   1.0773877e+04
 3.4686999e+00   1.0756194e+04
 3.4733801e+00   1.0747979e+04
 3.4780600e+00   1.0765195e+04
 3.4827399e+00   1.0769983e+04
 3.4874201e+00   1.0748968e+04
 3.4921000e+00   1.0771588e+04
 3.4967799e+00   1.0731355e+04
 3.5014601e+00   1.0769710e+04
 3.5061400e+00   1.0752572e+04
 3.5108199e+00   1.0722757e+04
 3.5155001e+00   1.0785142e+04
 3.5201800e+00   1.0727761e+04
 3.5248599e+00   1.0749938e+04
 3.5295401e+00   1.0772629e+04
 3.5342200e+00   1.0727164e+04
 3.5388999e+00   1.0746331e+04
 3.5435801e+00   1.0773020e+04
 3.5482600e+00   1.0724625e+04
 3.5529399e+00   1.0782917e+04
 3.5576200e+00   1.0747941e+04
 3.5623000e+00   1.0734684e+04
 3.5669799e+00   1.0768195e+04
 3.5716600e+00   1.0735618e+04
 3.5763400e+00   1.0743205e+04
 3.5810201e+00   1.0759245e+04
 3.5857000e+00   1.0707330e+04
 3.5903800e+00   1.0745132e+04
 3.5950601e+00   1.0766038e+04
 3.5997400e+00   1.0695908e+04
 3.6044199e+00   1.0749536e+04
 3.6091001e+00   1.0744290e+04
 3.6137800e+00   1.0681336e+04
 3.6184599e+00   1.0740189e+04
 3.6231401e+00   1.0684927e+04
 3.6278200e+00   1.0684250e+04
 3.6324999e+00   1.0724034e+04
 3.6371801e+00   1.0654818e+04
 3.6418600e+00   1.0696908e+04
 3.6465399e+00   1.0710663e+04
 3.6512201e+00   1.0635935e+04
 3.6559000e+00   1.0741990e+04
 3.6605799e+00   1.0646931e+04
 3.6652601e+00   1.0644458e+04
 3.6699400e+00   1.0716957e+04
 3.6746199e+00   1.0565106e+04
 3.6793001e+00   1.0615851e+04
 3.6839800e+00   1.0623563e+04
 3.6886599e+00   1.0524001e+04
 3.6933401e+00   1.0593103e+04
 3.6980200e+00   1.0523484e+04
 3.7026999e+00   1.0460358e+04
 3.7073801e+00   1.0528676e+04
 3.7120600e+00   1.0457489e+04
 3.7167399e+00   1.0441576e+04
 3.7214200e+00   1.0429793e+04
 3.7261000e+00   1.0298325e+04
 3.7307799e+00   1.0314422e+04
 3.7354600e+00   1.0261018e+04
 3.7401400e+00   1.0193689e+04
 3.7448201e+00   1.0204923e+04
 3.7495000e+00   1.0183270e+04
 3.7541800e+00   1.0062586e+04
 3.7588601e+00   1.0118044e+04
 3.7635400e+00   9.9608777e+03
 3.7682199e+00   1.0010951e+04
 3.7729001e+00   9.9471887e+03
 3.7775800e+00   9.8729209e+03
 3.7822599e+00   9.8385037e+03
 3.7869401e+00   9.8784492e+03
 3.7916200e+00   9.6545813e+03
 3.7962999e+00   9.8255613e+03
 3.8009801e+00   9.6570145e+03
 3.8056600e+00   9.6423651e+03
 3.8103399e+00   9.6887073e+03
 3.8150201e+00   9.5994750e+03
 3.8197000e+00   9.6101312e+03
 3.8243799e+00   9.6685748e+03
 3.8290601e+00   9.5284011e+03
 3.8337400e+00   9.5634259e+03
 3.8384199e+00   9.5714568e+03
 3.8431001e+00   9.3663307e+03
 3.8477800e+00   9.5519214e+03
 3.8524599e+00   9.4027027e+03
 3.8571401e+00   9.3881898e+03
 3.8618200e+00   9.3771988e+03
 3.8664999e+00   9.3264440e+03
 3.8711801e+00   9.3572030e+03
 3.8758600e+00   9.3079076e+03
 3.8805399e+00   9.2037611e+03
 3.8852201e+00   9.2958466e+03
 3.8899000e+00   9.1535501e+03
 3.8945799e+00   9.1263781e+03
 3.8992600e+00   9.1521605e+03
 3.9039400e+00   9.0594224e+03
 3.9086201e+00   9.0178577e+03
 3.9133000e+00   9.0762501e+03
 3.9179800e+00   8.9401974e+03
 3.9226601e+00   8.9741711e+03
 3.9273400e+00   8.9511059e+03
 3.9320199e+00   8.8772162e+03
 3.9367001e+00   8.8884222e+03
 3.9413800e+00   8.8602489e+03
 3.9460599e+00   8.7940830e+03
 3.9507401e+00   8.8426064e+03
 3.9554200e+00   8.7963521e+03
 3.9600999e+00   8.7248557e+03
 3.9647801e+00   8.7247231e+03
 3.9694600e+00   8.7247977e+03
 3.9741399e+00   8.6808091e+03
 3.9788201e+00   8.7034886e+03
 3.9835000e+00   8.6564404e+03
 3.9881799e+00   8.6393270e+03
 3.9928601e+00   8.5797343e+03
 3.9975400e+00   8.5278643e+03
 4.0022202e+00   8.6156730e+03
 4.0068998e+00   8.4610040e+03
 4.0115800e+00   8.5186917e+03
 4.0162601e+00   8.4967218e+03
 4.0209398e+00   8.3995763e+03
 4.0256200e+00   8.4129294e+03
 4.0303001e+00   8.4198899e+03
 4.0349798e+00   8.3730364e+03
 4.0396600e+00   8.4485976e+03
 4.0443401e+00   8.3311889e+03
 4.0490198e+00   8.3307860e+03
 4.0537000e+00   8.3501405e+03
 4.0583801e+00   8.3046028e+03
 4.0630598e+00   8.3026526e+03
 4.0677400e+00   8.2956406e+03
 4.0724201e+00   8.2089811e+03
 4.0770998e+00   8.2472213e+03
 4.0817800e+00   8.2083584e+03
 4.0864601e+00   8.2135970e+03
 4.0911398e+00   8.2560818e+03
 4.0958200e+00   8.1235994e+03
 4.1005001e+00   8.1622674e+03
 4.1051798e+00   8.1735306e+03
 4.1098599e+00   8.1041951e+03
 4.1145401e+00   8.1664064e+03
 4.1192198e+00   8.0876318e+03
 4.1238999e+00   8.0279479e+03
 4.1285801e+00   8.1657020e+03
 4.1332598e+00   8.0118264e+03
 4.1379399e+00   8.0938806e+03
 4.1426201e+00   8.0498826e+03
 4.1472998e+00   8.0051730e+03
 4.1519799e+00   8.0265560e+03
 4.1566601e+00   8.0187318e+03
 4.1613402e+00   7.9070978e+03
 4.1660199e+00   8.0075335e+03
 4.1707001e+00   7.8762169e+03
 4.1753802e+00   7.9076499e+03
 4.1800599e+00   7.9204715e+03
 4.1847401e+00   7.8793848e+03
 4.1894202e+00   7.9169553e+03
 4.1940999e+00   7.9005330e+03
 4.1987801e+00   7.8307834e+03
 4.2034602e+00   7.9347693e+03
 4.2081399e+00   7.8706070e+03
 4.2128201e+00   7.8773570e+03
 4.2175002e+00   8.0075216e+03
 4.2221799e+00   7.8680907e+03
 4.2268600e+00   7.8720057e+03
 4.2315402e+00   7.9101087e+03
 4.2362199e+00   7.7877148e+03
 4.2409000e+00   7.9055489e+03
 4.2455802e+00   7.8647525e+03
 4.2502599e+00   7.7882030e+03
 4.2549400e+00   7.9493563e+03
 4.2596202e+00   7.8927089e+03
 4.2642999e+00   7.9699163e+03
 4.2689800e+00   8.0858432e+03
 4.2736602e+00   8.2713681e+03
 4.2783399e+00   8.3435891e+03
 4.2830200e+00   8.5085533e+03
 4.2877002e+00   8.5937114e+03
 4.2923799e+00   8.7588457e+03
 4.2970600e+00   8.8598234e+03
 4.3017402e+00   8.9152627e+03
 4.3064198e+00   8.9728738e+03
 4.3111000e+00   8.9506576e+03
 4.3157802e+00   8.9926874e+03
 4.3204598e+00   8.9627581e+03
 4.3251400e+00   8.9076455e+03
 4.3298202e+00   8.9718074e+03
 4.3344998e+00   8.8988227e+03
 4.3391800e+00   8.9075829e+03
 4.3438601e+00   8.9391930e+03
 4.3485398e+00   8.9715316e+03
 4.3532200e+00   8.9520094e+03
 4.3579001e+00   8.9735364e+03
 4.3625798e+00   8.8165307e+03
 4.3672600e+00   8.8248508e+03
 4.3719401e+00   8.6951372e+03
 4.3766198e+00   8.6568315e+03
 4.3813000e+00   8.5945553e+03
 4.3859801e+00   8.5297479e+03
 4.3906598e+00   8.3965848e+03
 4.3953400e+00   8.3605056e+03
 4.4000201e+00   8.2389474e+03
 4.4046998e+00   8.2271371e+03
 4.4093800e+00   8.1075219e+03
 4.4140601e+00   8.0544553e+03
 4.4187398e+00   8.0255962e+03
 4.4234200e+00   7.9496082e+03
 4.4281001e+00   7.8550404e+03
 4.4327798e+00   7.9237049e+03
 4.4374599e+00   7.7989217e+03
 4.4421401e+00   7.7834012e+03
 4.4468198e+00   7.7679508e+03
 4.4514999e+00   7.6889815e+03
 4.4561801e+00   7.7055546e+03
 4.4608598e+00   7.7020471e+03
 4.4655399e+00   7.6387304e+03
 4.4702201e+00   7.6713071e+03
 4.4748998e+00   7.6259382e+03
 4.4795799e+00   7.6007317e+03
 4.4842601e+00   7.6024319e+03
 4.4889398e+00   7.5398458e+03
 4.4936199e+00   7.5248451e+03
 4.4983001e+00   7.4895558e+03
 4.5029802e+00   7.4085576e+03
 4.5076599e+00   7.3837907e+03
 4.5123401e+00   7.3489915e+03
 4.5170202e+00   7.2312583e+03
 4.5216999e+00   7.2335434e+03
 4.5263801e+00   7.1772488e+03
 4.5310602e+00   7.1170341e+03
 4.5357399e+00   7.1126087e+03
 4.5404201e+00   7.0674408e+03
 4.5451002e+00   7.0346763e+03
 4.5497799e+00   7.0295440e+03
 4.5544600e+00   6.9958246e+03
 4.5591402e+00   6.9990551e+03
 4.5638199e+00   6.9609220e+03
 4.5685000e+00   6.9156735e+03
 4.5731802e+00   6.9437404e+03
 4.5778599e+00   6.9249917e+03
 4.5825400e+00   6.9087028e+03
 4.5872202e+00   6.9017299e+03
 4.5918999e+00   6.8639253e+03
 4.5965800e+00   6.8446597e+03
 4.6012602e+00   6.8352085e+03
 4.6059399e+00   6.8278410e+03
 4.6106200e+00   6.8215409e+03
 4.6153002e+00   6.8073213e+03
 4.6199799e+00   6.7731428e+03
 4.6246600e+00   6.7755163e+03
 4.6293402e+00   6.7299677e+03
 4.6340199e+00   6.7243642e+03
 4.6387000e+00   6.7240520e+03
 4.6433802e+00   6.6992044e+03
 4.6480598e+00   6.6810166e+03
 4.6527400e+00   6.6716040e+03
 4.6574202e+00   6.6288704e+03
 4.6620998e+00   6.6632121e+03
 4.6667800e+00   6.6535547e+03
 4.6714602e+00   6.6446356e+03
 4.6761398e+00   6.6156299e+03
 4.6808200e+00   6.6132180e+03
 4.6855001e+00   6.6002929e+03
 4.6901798e+00   6.5955025e+03
 4.6948600e+00   6.6244627e+03
 4.6995401e+00   6.6169450e+03
 4.7042198e+00   6.6358146e+03
 4.7089000e+00   6.6304010e+03
 4.7135801e+00   6.7091577e+03
 4.7182598e+00   6.7357281e+03
 4.7229400e+00   6.8168174e+03
 4.7276201e+00   6.8345520e+03
 4.7322998e+00   6.9200966e+03
 4.7369800e+00   6.9812295e+03
 4.7416601e+00   7.0272123e+03
 4.7463398e+00   7.0937194e+03
 4.7510200e+00   7.1720021e+03
 4.7557001e+00   7.2310395e+03
 4.7603798e+00   7.3181330e+03
 4.7650599e+00   7.4036683e+03
 4.7697401e+00   7.5409465e+03
 4.7744198e+00   7.7120648e+03
 4.7790999e+00   7.8823540e+03
 4.7837801e+00   8.0802935e+03
 4.7884598e+00   8.3244276e+03
 4.7931399e+00   8.5529184e+03
 4.7978201e+00   8.7799471e+03
 4.8024998e+00   8.9824983e+03
 4.8071799e+00   9.1613322e+03
 4.8118601e+00   9.2484198e+03
 4.8165398e+00   9.2966010e+03
 4.8212199e+00   9.3115271e+03
 4.8259001e+00   9.2349364e+03
 4.8305802e+00   9.1419137e+03
 4.8352599e+00   8.9895642e+03
 4.8399401e+00   8.8112358e+03
 4.8446202e+00   8.5798559e+03
 4.8492999e+00   8.3523669e+03
 4.8539801e+00   8.1197131e+03
 4.8586602e+00   7.8867193e+03
 4.8633399e+00   7.6433604e+03
 4.8680201e+00   7.4958484e+03
 4.8727002e+00   7.3370513e+03
 4.8773799e+00   7.2629650e+03
 4.8820601e+00   7.2155798e+03
 4.8867402e+00   7.2092179e+03
 4.8914199e+00   7.2770454e+03
 4.8961000e+00   7.3661014e+03
 4.9007802e+00   7.4675366e+03
 4.9054599e+00   7.6137878e+03
 4.9101400e+00   7.7340934e+03
 4.9148202e+00   7.8640836e+03
 4.9194999e+00   7.9780847e+03
 4.9241800e+00   8.0702444e+03
 4.9288602e+00   8.1452852e+03
 4.9335399e+00   8.2125786e+03
 4.9382200e+00   8.2814889e+03
 4.9429002e+00   8.3275998e+03
 4.9475799e+00   8.4153012e+03
 4.9522600e+00   8.4540867e+03
 4.9569402e+00   8.5199653e+03
 4.9616199e+00   8.5811526e+03
 4.9663000e+00   8.6523484e+03
 4.9709802e+00   8.7040999e+03
 4.9756598e+00   8.7653356e+03
 4.9803400e+00   8.8096629e+03
 4.9850202e+00   8.8230237e+03
 4.9896998e+00   8.7833072e+03
 4.9943800e+00   8.7440338e+03
 4.9990602e+00   8.6433453e+03
 5.0037398e+00   8.5139982e+03
 5.0084200e+00   8.3387281e+03
 5.0131001e+00   8.1406088e+03
 5.0177798e+00   7.9337013e+03
 5.0224600e+00   7.7224209e+03
 5.0271401e+00   7.5132598e+03
 5.0318198e+00   7.3091783e+03
 5.0365000e+00   7.1649261e+03
 5.0411801e+00   6.9899543e+03
 5.0458598e+00   6.8784410e+03
 5.0505400e+00   6.7631513e+03
 5.0552201e+00   6.7099142e+03
 5.0598998e+00   6.6372078e+03
 5.0645800e+00   6.6059803e+03
 5.0692601e+00   6.6213833e+03
 5.0739398e+00   6.6484913e+03
 5.0786200e+00   6.7231429e+03
 5.0833001e+00   6.8764176e+03
 5.0879798e+00   6.9957641e+03
 5.0926600e+00   7.3707354e+03
 5.0973401e+00   7.6631046e+03
 5.1020198e+00   8.1300455e+03
 5.1066999e+00   9.3692084e+03
 5.1113801e+00   1.0348106e+04
 5.1160598e+00   1.2659805e+04
 5.1207399e+00   1.7056615e+04
 5.1254201e+00   2.0891587e+04
 5.1300998e+00   3.0535757e+04
 5.1347799e+00   3.9263846e+04
 5.1394601e+00   4.3502230e+04
 5.1441398e+00   5.1086316e+04
 5.1488199e+00   4.7276295e+04
 5.1535001e+00   4.1428078e+04
 5.1581802e+00   3.6012816e+04
 5.1628599e+00   2.5995132e+04
 5.1675401e+00   1.9261283e+04
 5.1722202e+00   1.4724426e+04
 5.1768999e+00   1.0871979e+04
 5.1815801e+00   9.3701013e+03
 5.1862602e+00   8.0124258e+03
 5.1909399e+00   7.3051698e+03
 5.1956201e+00   7.0320286e+03
 5.2003002e+00   6.6960192e+03
 5.2049799e+00   6.5278650e+03
 5.2096601e+00   6.4377994e+03
 5.2143402e+00   6.3219852e+03
 5.2190199e+00   6.2577011e+03
 5.2237000e+00   6.1988585e+03
 5.2283802e+00   6.1301407e+03
 5.2330599e+00   6.0892353e+03
 5.2377400e+00   6.0490025e+03
 5.2424202e+00   6.0122152e+03
 5.2470999e+00   6.0076968e+03
 5.2517800e+00   5.9855921e+03
 5.2564602e+00   5.9556570e+03
 5.2611399e+00   5.9581215e+03
 5.2658200e+00   5.9223734e+03
 5.2705002e+00   5.9490394e+03
 5.2751799e+00   5.8941890e+03
 5.2798600e+00   5.9087440e+03
 5.2845402e+00   5.8888188e+03
 5.2892199e+00   5.8872557e+03
 5.2939000e+00   5.8972162e+03
 5.2985802e+00   5.8724275e+03
 5.3032598e+00   5.8584405e+03
 5.3079400e+00   5.8607899e+03
 5.3126202e+00   5.8622246e+03
 5.3172998e+00   5.8621445e+03
 5.3219800e+00   5.8568754e+03
 5.3266602e+00   5.8381484e+03
 5.3313398e+00   5.8462790e+03
 5.3360200e+00   5.8372687e+03
 5.3407001e+00   5.8290413e+03
 5.3453798e+00   5.8387143e+03
 5.3500600e+00   5.8217479e+03
 5.3547401e+00   5.8118966e+03
 5.3594198e+00   5.8258672e+03
 5.3641000e+00   5.8368338e+03
 5.3687801e+00   5.8314828e+03
 5.3734598e+00   5.8278323e+03
 5.3781400e+00   5.8412853e+03
 5.3828201e+00   5.8428102e+03
 5.3874998e+00   5.8405234e+03
 5.3921800e+00   5.8452697e+03
 5.3968601e+00   5.8520286e+03
 5.4015398e+00   5.8636782e+03
 5.4062200e+00   5.8828463e+03
 5.4109001e+00   5.9016153e+03
 5.4155798e+00   5.8968068e+03
 5.4202600e+00   5.9188190e+03
 5.4249401e+00   5.9120926e+03
 5.4296198e+00   5.9289278e+03
 5.4342999e+00   5.9598059e+03
 5.4389801e+00   5.9543857e+03
 5.4436598e+00   6.0077171e+03
 5.4483399e+00   6.0210419e+03
 5.4530201e+00   6.0349605e+03
 5.4576998e+00   6.0999276e+03
 5.4623799e+00   6.1341854e+03
 5.4670601e+00   6.1765479e+03
 5.4717398e+00   6.2445791e+03
 5.4764199e+00   6.3034656e+03
 5.4811001e+00   6.3878074e+03
 5.4857798e+00   6.4968071e+03
 5.4904599e+00   6.5891809e+03
 5.4951401e+00   6.7459418e+03
 5.4998202e+00   6.9175297e+03
 5.5044999e+00   7.1692022e+03
 5.5091801e+00   7.4268640e+03
 5.5138602e+00   7.7405303e+03
 5.5185399e+00   8.1707049e+03
 5.5232201e+00   8.6263730e+03
 5.5279002e+00   9.1656848e+03
 5.5325799e+00   9.8248706e+03
 5.5372601e+00   1.0481786e+04
 5.5419402e+00   1.1246035e+04
 5.5466199e+00   1.1910464e+04
 5.5513000e+00   1.2536322e+04
 5.5559802e+00   1.3021804e+04
 5.5606599e+00   1.3378836e+04
 5.5653400e+00   1.3494005e+04
 5.5700202e+00   1.3476824e+04
 5.5746999e+00   1.3266623e+04
 5.5793800e+00   1.2949149e+04
 5.5840602e+00   1.2556984e+04
 5.5887399e+00   1.2042705e+04
 5.5934200e+00   1.1560533e+04
 5.5981002e+00   1.1064590e+04
 5.6027799e+00   1.0574487e+04
 5.6074600e+00   1.0132630e+04
 5.6121402e+00   9.7238995e+03
 5.6168199e+00   9.3355590e+03
 5.6215000e+00   9.0146092e+03
 5.6261802e+00   8.7007298e+03
 5.6308599e+00   8.4029816e+03
 5.6355400e+00   8.1750039e+03
 5.6402202e+00   7.9482981e+03
 5.6448998e+00   7.7098580e+03
 5.6495800e+00   7.5296584e+03
 5.6542602e+00   7.3182196e+03
 5.6589398e+00   7.1608060e+03
 5.6636200e+00   6.9852323e+03
 5.6683002e+00   6.8552342e+03
 5.6729798e+00   6.7346549e+03
 5.6776600e+00   6.6184969e+03
 5.6823401e+00   6.5113546e+03
 5.6870198e+00   6.4355249e+03
 5.6917000e+00   6.3556035e+03
 5.6963801e+00   6.3055682e+03
 5.7010598e+00   6.2448217e+03
 5.7057400e+00   6.1919114e+03
 5.7104201e+00   6.1566184e+03
 5.7150998e+00   6.1229457e+03
 5.7197800e+00   6.0928421e+03
 5.7244601e+00   6.0841427e+03
 5.7291398e+00   6.0601476e+03
 5.7338200e+00   6.0445142e+03
 5.7385001e+00   6.0561748e+03
 5.7431798e+00   6.0530014e+03
 5.7478600e+00   6.0685276e+03
 5.7525401e+00   6.0583275e+03
 5.7572198e+00   6.0612205e+03
 5.7618999e+00   6.0681798e+03
 5.7665801e+00   6.0474799e+03
 5.7712598e+00   6.0474903e+03
 5.7759399e+00   6.0325240e+03
 5.7806201e+00   6.0025543e+03
 5.7852998e+00   5.9992605e+03
 5.7899799e+00   5.9819660e+03
 5.7946601e+00   5.9824156e+03
 5.7993398e+00   5.9818728e+03
 5.8040199e+00   5.9535420e+03
 5.8087001e+00   5.9614613e+03
 5.8133798e+00   5.9578655e+03
 5.8180599e+00   5.9598777e+03
 5.8227401e+00   5.9512089e+03
 5.8274202e+00   5.9773194e+03
 5.8320999e+00   5.9611245e+03
 5.8367801e+00   5.9957232e+03
 5.8414602e+00   5.9817935e+03
 5.8461399e+00   5.9955433e+03
 5.8508201e+00   6.0458080e+03
 5.8555002e+00   6.0450268e+03
 5.8601799e+00   6.0679484e+03
 5.8648601e+00   6.1201720e+03
 5.8695402e+00   6.1558325e+03
 5.8742199e+00   6.2015679e+03
 5.8789001e+00   6.2352453e+03
 5.8835802e+00   6.3052065e+03
 5.8882599e+00   6.3888255e+03
 5.8929400e+00   6.4670314e+03
 5.8976202e+00   6.6087319e+03
 5.9022999e+00   6.7838143e+03
 5.9069800e+00   7.0614923e+03
 5.9116602e+00   7.4778622e+03
 5.9163399e+00   8.0269123e+03
 5.9210200e+00   8.8552056e+03
 5.9257002e+00   1.0038398e+04
 5.9303799e+00   1.1504532e+04
 5.9350600e+00   1.2870377e+04
 5.9397402e+00   1.3585562e+04
 5.9444199e+00   1.3705809e+04
 5.9491000e+00   1.3365309e+04
 5.9537802e+00   1.2456156e+04
 5.9584599e+00   1.1268464e+04
 5.9631400e+00   1.0086263e+04
 5.9678202e+00   9.2563644e+03
 5.9724998e+00   8.6057281e+03
 5.9771800e+00   8.2595546e+03
 5.9818602e+00   8.0287390e+03
 5.9865398e+00   7.9022405e+03
 5.9912200e+00   7.7546338e+03
 5.9959002e+00   7.6449652e+03
 6.0005798e+00   7.5247469e+03
 6.0052600e+00   7.3905738e+03
 6.0099401e+00   7.2990755e+03
 6.0146198e+00   7.1741108e+03
 6.0193000e+00   7.0344003e+03
 6.0239801e+00   6.9425715e+03
 6.0286598e+00   6.7967791e+03
 6.0333400e+00   6.7071528e+03
 6.0380201e+00   6.6045603e+03
 6.0426998e+00   6.5115560e+03
 6.0473800e+00   6.4290570e+03
 6.0520601e+00   6.3737814e+03
 6.0567398e+00   6.2630101e+03
 6.0614200e+00   6.2346237e+03
 6.0661001e+00   6.1832144e+03
 6.0707798e+00   6.1177886e+03
 6.0754600e+00   6.1045842e+03
 6.0801401e+00   6.0457412e+03
 6.0848198e+00   6.0021582e+03
 6.0895000e+00   6.0049202e+03
 6.0941801e+00   5.9579074e+03
 6.0988598e+00   5.9706765e+03
 6.1035399e+00   5.9462226e+03
 6.1082201e+00   5.9180129e+03
 6.1128998e+00   5.9244143e+03
 6.1175799e+00   5.9109096e+03
 6.1222601e+00   5.8897290e+03
 6.1269398e+00   5.8964499e+03
 6.1316199e+00   5.8759609e+03
 6.1363001e+00   5.8785763e+03
 6.1409798e+00   5.8687178e+03
 6.1456599e+00   5.8409353e+03
 6.1503401e+00   5.8681657e+03
 6.1550202e+00   5.8570746e+03
 6.1596999e+00   5.8501712e+03
 6.1643801e+00   5.8658664e+03
 6.1690602e+00   5.8574381e+03
 6.1737399e+00   5.8541948e+03
 6.1784201e+00   5.8744690e+03
 6.1831002e+00   5.8374036e+03
 6.1877799e+00   5.8566435e+03
 6.1924601e+00   5.8462104e+03
 6.1971402e+00   5.8495373e+03
 6.2018199e+00   5.8853313e+03
 6.2065001e+00   5.8580715e+03
 6.2111802e+00   5.8554156e+03
 6.2158599e+00   5.8777194e+03
 6.2205400e+00   5.8499874e+03
 6.2252202e+00   5.8637435e+03
 6.2298999e+00   5.8737938e+03
 6.2345800e+00   5.8497514e+03
 6.2392602e+00   5.8782371e+03
 6.2439399e+00   5.8626066e+03
 6.2486200e+00   5.8613290e+03
 6.2533002e+00   5.8795701e+03
 6.2579799e+00   5.8923094e+03
 6.2626600e+00   5.8763493e+03
 6.2673402e+00   5.9045651e+03
 6.2720199e+00   5.8779272e+03
 6.2767000e+00   5.9047788e+03
 6.2813802e+00   5.8901278e+03
 6.2860599e+00   5.8898739e+03
 6.2907400e+00   5.8945137e+03
 6.2954202e+00   5.9016719e+03
 6.3000998e+00   5.8894762e+03
 6.3047800e+00   5.9275533e+03
 6.3094602e+00   5.9072489e+03
 6.3141398e+00   5.9292488e+03
 6.3188200e+00   5.9210182e+03
 6.3235002e+00   5.9339293e+03
 6.3281798e+00   5.9452534e+03
 6.3328600e+00   5.9376432e+03
 6.3375401e+00   5.9514104e+03
 6.3422198e+00   5.9510352e+03
 6.3469000e+00   5.9413668e+03
 6.3515801e+00   5.9462564e+03
 6.3562598e+00   5.9658168e+03
 6.3609400e+00   5.9430672e+03
 6.3656201e+00   5.9704210e+03
 6.3702998e+00   5.9379955e+03
 6.3749800e+00   5.9542874e+03
 6.3796601e+00   5.9554850e+03
 6.3843398e+00   5.9726499e+03
 6.3890200e+00   5.9529735e+03
 6.3937001e+00   5.9857361e+03
 6.3983798e+00   5.9504247e+03
 6.4030600e+00   5.9745876e+03
 6.4077401e+00   5.9648689e+03
 6.4124198e+00   5.9729340e+03
 6.4171000e+00   6.0051573e+03
 6.4217801e+00   5.9976009e+03
 6.4264598e+00   5.9903009e+03
 6.4311399e+00   6.0133221e+03
 6.4358201e+00   6.0048227e+03
 6.4404998e+00   6.0242908e+03
 6.4451799e+00   6.0421992e+03
 6.4498601e+00   6.0136834e+03
 6.4545398e+00   6.0074441e+03
 6.4592199e+00   6.0105685e+03
 6.4639001e+00   6.0159780e+03
 6.4685798e+00   6.0383999e+03
 6.4732599e+00   5.9996358e+03
 6.4779401e+00   6.0294726e+03
 6.4826198e+00   6.0237547e+03
 6.4872999e+00   6.0295544e+03
 6.4919801e+00   6.0436151e+03
 6.4966602e+00   6.0679300e+03
 6.5013399e+00   6.0193809e+03
 6.5060201e+00   6.0761638e+03
 6.5107002e+00   6.0362172e+03
 6.5153799e+00   6.0754911e+03
 6.5200601e+00   6.0802205e+03
 6.5247402e+00   6.0823050e+03
 6.5294199e+00   6.0623065e+03
 6.5341001e+00   6.1104360e+03
 6.5387802e+00   6.0964356e+03
 6.5434599e+00   6.1078098e+03
 6.5481400e+00   6.1308664e+03
 6.5528202e+00   6.1366763e+03
 6.5574999e+00   6.1519097e+03
 6.5621800e+00   6.1363967e+03
 6.5668602e+00   6.1668880e+03
 6.5715399e+00   6.1728126e+03
 6.5762200e+00   6.1659520e+03
 6.5809002e+00   6.1862229e+03
 6.5855799e+00   6.1946735e+03
 6.5902600e+00   6.1640677e+03
 6.5949402e+00   6.2404701e+03
 6.5996199e+00   6.1775058e+03
 6.6043000e+00   6.2180961e+03
 6.6089802e+00   6.2340388e+03
 6.6136599e+00   6.2058686e+03
 6.6183400e+00   6.2538776e+03
 6.6230202e+00   6.2466006e+03
 6.6276999e+00   6.2399839e+03
 6.6323800e+00   6.2953011e+03
 6.6370602e+00   6.2844671e+03
 6.6417398e+00   6.2624197e+03
 6.6464200e+00   6.3531164e+03
 6.6511002e+00   6.2955086e+03
 6.6557798e+00   6.3341592e+03
 6.6604600e+00   6.3434633e+03
 6.6651402e+00   6.3655591e+03
 6.6698198e+00   6.3429297e+03
 6.6745000e+00   6.4014196e+03
 6.6791801e+00   6.3801733e+03
 6.6838598e+00   6.4287711e+03
 6.6885400e+00   6.3637997e+03
 6.6932201e+00   6.4401364e+03
 6.6978998e+00   6.3765711e+03
 6.7025800e+00   6.4301059e+03
 6.7072601e+00   6.4494229e+03
 6.7119398e+00   6.4285952e+03
 6.7166200e+00   6.4591652e+03
 6.7213001e+00   6.4830119e+03
 6.7259798e+00   6.4804983e+03
 6.7306600e+00   6.4872841e+03
 6.7353401e+00   6.5398543e+03
 6.7400198e+00   6.5280837e+03
 6.7447000e+00   6.5726291e+03
 6.7493801e+00   6.5338313e+03
 6.7540598e+00   6.6028842e+03
 6.7587399e+00   6.5988699e+03
 6.7634201e+00   6.6366586e+03
 6.7680998e+00   6.6137735e+03
 6.7727799e+00   6.7137552e+03
 6.7774601e+00   6.6238285e+03
 6.7821398e+00   6.7094058e+03
 6.7868199e+00   6.6727824e+03
 6.7915001e+00   6.7156018e+03
 6.7961798e+00   6.7089769e+03
 6.8008599e+00   6.6997132e+03
 6.8055401e+00   6.7144569e+03
 6.8102198e+00   6.7447300e+03
 6.8148999e+00   6.7551859e+03
 6.8195801e+00   6.7872857e+03
 6.8242602e+00   6.7912996e+03
 6.8289399e+00   6.7669883e+03
 6.8336201e+00   6.8568075e+03
 6.8383002e+00   6.8198532e+03
 6.8429799e+00   6.8768601e+03
 6.8476601e+00   6.9294065e+03
 6.8523402e+00   6.9244488e+03
 6.8570199e+00   6.9543213e+03
 6.8617001e+00   7.0091669e+03
 6.8663802e+00   7.0253402e+03
 6.8710599e+00   7.0728615e+03
 6.8757401e+00   7.1152395e+03
 6.8804202e+00   7.1703576e+03
 6.8850999e+00   7.2035686e+03
 6.8897800e+00   7.2976305e+03
 6.8944602e+00   7.3090411e+03
 6.8991399e+00   7.4718160e+03
 6.9038200e+00   7.4594286e+03
 6.9085002e+00   7.5808171e+03
 6.9131799e+00   7.6157727e+03
 6.9178600e+00   7.7674262e+03
 6.9225402e+00   7.7946418e+03
 6.9272199e+00   7.9017720e+03
 6.9319000e+00   7.9367688e+03
 6.9365802e+00   8.0336505e+03
 6.9412599e+00   7.9827070e+03
 6.9459400e+00   8.0772451e+03
 6.9506202e+00   8.0818121e+03
 6.9552999e+00   8.1130109e+03
 6.9599800e+00   8.1320844e+03
 6.9646602e+00   8.1622799e+03
 6.9693398e+00   8.0986185e+03
 6.9740200e+00   8.1704826e+03
 6.9787002e+00   8.1491657e+03
 6.9833798e+00   8.1278102e+03
 6.9880600e+00   8.1531638e+03
 6.9927402e+00   8.1383226e+03
 6.9974198e+00   8.1188057e+03
 7.0021000e+00   8.0919279e+03
 7.0067801e+00   8.1189249e+03
 7.0114598e+00   8.1050127e+03
 7.0161400e+00   8.0626230e+03
 7.0208201e+00   7.9960591e+03
 7.0254998e+00   8.0224916e+03
 7.0301800e+00   7.9047010e+03
 7.0348601e+00   7.9267896e+03
 7.0395398e+00   7.8245616e+03
 7.0442200e+00   7.8172257e+03
 7.0489001e+00   7.7425657e+03
 7.0535798e+00   7.6946112e+03
 7.0582600e+00   7.6444274e+03
 7.0629401e+00   7.6642622e+03
 7.0676198e+00   7.5347361e+03
 7.0723000e+00   7.5056462e+03
 7.0769801e+00   7.4001143e+03
 7.0816598e+00   7.2934996e+03
 7.0863400e+00   7.2544037e+03
 7.0910201e+00   7.1276592e+03
 7.0956998e+00   7.0720557e+03
 7.1003799e+00   7.0231201e+03
 7.1050601e+00   6.9807749e+03
 7.1097398e+00   6.9103437e+03
 7.1144199e+00   6.9061271e+03
 7.1191001e+00   6.8533339e+03
 7.1237798e+00   6.8680929e+03
 7.1284599e+00   6.8139795e+03
 7.1331401e+00   6.8114455e+03
 7.1378198e+00   6.7770182e+03
 7.1424999e+00   6.7802507e+03
 7.1471801e+00   6.7554051e+03
 7.1518602e+00   6.7600350e+03
 7.1565399e+00   6.7363991e+03
 7.1612201e+00   6.7367486e+03
 7.1659002e+00   6.6946034e+03
 7.1705799e+00   6.7015904e+03
 7.1752601e+00   6.7109257e+03
 7.1799402e+00   6.6775901e+03
 7.1846199e+00   6.6784919e+03
 7.1893001e+00   6.6768316e+03
 7.1939802e+00   6.6716427e+03
 7.1986599e+00   6.6380606e+03
 7.2033401e+00   6.6645364e+03
 7.2080202e+00   6.6290930e+03
 7.2126999e+00   6.6621370e+03
 7.2173800e+00   6.6127888e+03
 7.2220602e+00   6.6343326e+03
 7.2267399e+00   6.6362772e+03
 7.2314200e+00   6.6363072e+03
 7.2361002e+00   6.6387208e+03
 7.2407799e+00   6.6490425e+03
 7.2454600e+00   6.6301865e+03
 7.2501402e+00   6.6668967e+03
 7.2548199e+00   6.6629724e+03
 7.2595000e+00   6.6646009e+03
 7.2641802e+00   6.6850506e+03
 7.2688599e+00   6.6711074e+03
 7.2735400e+00   6.6789873e+03
 7.2782202e+00   6.6848281e+03
 7.2828999e+00   6.6775436e+03
 7.2875800e+00   6.6806738e+03
 7.2922602e+00   6.6687936e+03
 7.2969398e+00   6.6444793e+03
 7.3016200e+00   6.6791503e+03
 7.3063002e+00   6.6528443e+03
 7.3109798e+00   6.6792004e+03
 7.3156600e+00   6.6836257e+03
 7.3203402e+00   6.7036769e+03
 7.3250198e+00   6.7188749e+03
 7.3297000e+00   6.7340986e+03
 7.3343801e+00   6.7447512e+03
 7.3390598e+00   6.7874755e+03
 7.3437400e+00   6.8111359e+03
 7.3484201e+00   6.8208087e+03
 7.3530998e+00   6.8473826e+03
 7.3577800e+00   6.8465058e+03
 7.3624601e+00   6.8768608e+03
 7.3671398e+00   6.8759273e+03
 7.3718200e+00   6.9122383e+03
 7.3765001e+00   6.9143950e+03
 7.3811798e+00   6.9219428e+03
 7.3858600e+00   6.9214001e+03
 7.3905401e+00   6.9337040e+03
 7.3952198e+00   6.9484589e+03
 7.3999000e+00   6.9471694e+03
 7.4045801e+00   6.9553550e+03
 7.4092598e+00   6.9588568e+03
 7.4139400e+00   6.9907069e+03
 7.4186201e+00   6.9865976e+03
 7.4232998e+00   7.0217539e+03
 7.4279799e+00   7.0225293e+03
 7.4326601e+00   7.0548598e+03
 7.4373398e+00   7.0653683e+03
 7.4420199e+00   7.0828166e+03
 7.4467001e+00   7.0990103e+03
 7.4513798e+00   7.1337744e+03
 7.4560599e+00   7.1438357e+03
 7.4607401e+00   7.1579340e+03
 7.4654198e+00   7.1826606e+03
 7.4700999e+00   7.2059696e+03
 7.4747801e+00   7.2347310e+03
 7.4794598e+00   7.2198888e+03
 7.4841399e+00   7.2666154e+03
 7.4888201e+00   7.2776981e+03
 7.4935002e+00   7.2989567e+03
 7.4981799e+00   7.2941242e+03
 7.5028601e+00   7.3362095e+03
 7.5075402e+00   7.3447551e+03
 7.5122199e+00   7.3890872e+03
 7.5169001e+00   7.3918188e+03
 7.5215802e+00   7.4114498e+03
 7.5262599e+00   7.4626908e+03
 7.5309401e+00   7.4527118e+03
 7.5356202e+00   7.4987116e+03
 7.5402999e+00   7.5156944e+03
 7.5449800e+00   7.5317855e+03
 7.5496602e+00   7.5396906e+03
 7.5543399e+00   7.5528700e+03
 7.5590200e+00   7.5545657e+03
 7.5637002e+00   7.5870492e+03
 7.5683799e+00   7.5552873e+03
 7.5730600e+00   7.5685058e+03
 7.5777402e+00   7.5443871e+03
 7.5824199e+00   7.5272644e+03
 7.5871000e+00   7.4860550e+03
 7.5917802e+00   7.4802635e+03
 7.5964599e+00   7.4351092e+03
 7.6011400e+00   7.4022425e+03
 7.6058202e+00   7.2909765e+03
 7.6104999e+00   7.2405446e+03
 7.6151800e+00   7.1662740e+03
 7.6198602e+00   7.0185408e+03
 7.6245399e+00   6.9591367e+03
 7.6292200e+00   6.8287265e+03
 7.6339002e+00   6.7772717e+03
 7.6385798e+00   6.6683558e+03
 7.6432600e+00   6.6020855e+03
 7.6479402e+00   6.5284878e+03
 7.6526198e+00   6.4801659e+03
 7.6573000e+00   6.4193117e+03
 7.6619802e+00   6.3848607e+03
 7.6666598e+00   6.3313533e+03
 7.6713400e+00   6.3045600e+03
 7.6760201e+00   6.2614453e+03
 7.6806998e+00   6.2569575e+03
 7.6853800e+00   6.2312031e+03
 7.6900601e+00   6.2068199e+03
 7.6947398e+00   6.1768189e+03
 7.6994200e+00   6.1591117e+03
 7.7041001e+00   6.1486399e+03
 7.7087798e+00   6.1310866e+03
 7.7134600e+00   6.1149502e+03
 7.7181401e+00   6.0829547e+03
 7.7228198e+00   6.0981010e+03
 7.7275000e+00   6.0641143e+03
 7.7321801e+00   6.0660256e+03
 7.7368598e+00   6.0433846e+03
 7.7415400e+00   6.0345698e+03
 7.7462201e+00   6.0167849e+03
 7.7508998e+00   6.0044693e+03
 7.7555799e+00   5.9654428e+03
 7.7602601e+00   5.9802567e+03
 7.7649398e+00   5.9552288e+03
 7.7696199e+00   5.9530424e+03
 7.7743001e+00   5.9489074e+03
 7.7789798e+00   5.9141014e+03
 7.7836599e+00   5.9163118e+03
 7.7883401e+00   5.8767650e+03
 7.7930198e+00   5.8829665e+03
 7.7976999e+00   5.8839228e+03
 7.8023801e+00   5.8631350e+03
 7.8070598e+00   5.8455800e+03
 7.8117399e+00   5.8636156e+03
 7.8164201e+00   5.7978101e+03
 7.8211002e+00   5.8338688e+03
 7.8257799e+00   5.8085849e+03
 7.8304601e+00   5.8015648e+03
 7.8351402e+00   5.8125546e+03
 7.8398199e+00   5.7998065e+03
 7.8445001e+00   5.7584779e+03
 7.8491802e+00   5.7936876e+03
 7.8538599e+00   5.7595684e+03
 7.8585401e+00   5.7618970e+03
 7.8632202e+00   5.7548559e+03
 7.8678999e+00   5.7182211e+03
 7.8725801e+00   5.7458279e+03
 7.8772602e+00   5.7304036e+03
 7.8819399e+00   5.7169721e+03
 7.8866200e+00   5.7177784e+03
 7.8913002e+00   5.7124842e+03
 7.8959799e+00   5.6981780e+03
 7.9006600e+00   5.7082371e+03
 7.9053402e+00   5.6595123e+03
 7.9100199e+00   5.7064192e+03
 7.9147000e+00   5.6593857e+03
 7.9193802e+00   5.6693279e+03
 7.9240599e+00   5.6656424e+03
 7.9287400e+00   5.6497183e+03
 7.9334202e+00   5.6366952e+03
 7.9380999e+00   5.6631206e+03
 7.9427800e+00   5.6228049e+03
 7.9474602e+00   5.6571217e+03
 7.9521399e+00   5.6259633e+03
 7.9568200e+00   5.6097511e+03
 7.9615002e+00   5.6369758e+03
 7.9661798e+00   5.6103558e+03
 7.9708600e+00   5.6145067e+03
 7.9755402e+00   5.6095126e+03
 7.9802198e+00   5.5720631e+03
 7.9849000e+00   5.5862285e+03
 7.9895802e+00   5.6027464e+03
 7.9942598e+00   5.5634846e+03
 7.9989400e+00   5.5813012e+03
 8.0036201e+00   5.5423702e+03
 8.0082998e+00   5.5625098e+03
 8.0129805e+00   5.5571902e+03
 8.0176601e+00   5.5505144e+03
 8.0223398e+00   5.5460896e+03
 8.0270205e+00   5.5451972e+03
 8.0317001e+00   5.5256927e+03
 8.0363798e+00   5.5607655e+03
 8.0410604e+00   5.5256022e+03
 8.0457401e+00   5.5428427e+03
 8.0504198e+00   5.5506249e+03
 8.0551004e+00   5.5518559e+03
 8.0597801e+00   5.5797646e+03
 8.0644598e+00   5.5857893e+03
 8.0691404e+00   5.6102755e+03
 8.0738201e+00   5.6645379e+03
 8.0784998e+00   5.6767882e+03
 8.0831804e+00   5.7260412e+03
 8.0878601e+00   5.7729387e+03
 8.0925398e+00   5.7758188e+03
 8.0972204e+00   5.8471192e+03
 8.1019001e+00   5.8752513e+03
 8.1065798e+00   5.9034317e+03
 8.1112604e+00   5.9483571e+03
 8.1159401e+00   5.9514852e+03
 8.1206198e+00   5.9651307e+03
 8.1253004e+00   5.9791636e+03
 8.1299801e+00   5.9808992e+03
 8.1346598e+00   5.9881239e+03
 8.1393404e+00   6.0000043e+03
 8.1440201e+00   5.9666027e+03
 8.1486998e+00   6.0475642e+03
 8.1533804e+00   6.0042437e+03
 8.1580601e+00   6.0535868e+03
 8.1627398e+00   6.0669345e+03
 8.1674204e+00   6.0834366e+03
 8.1721001e+00   6.1244736e+03
 8.1767797e+00   6.1930147e+03
 8.1814604e+00   6.2185477e+03
 8.1861401e+00   6.3129230e+03
 8.1908197e+00   6.3545050e+03
 8.1955004e+00   6.4503926e+03
 8.2001801e+00   6.5256696e+03
 8.2048597e+00   6.6067062e+03
 8.2095404e+00   6.7060453e+03
 8.2142200e+00   6.8087630e+03
 8.2188997e+00   6.9019110e+03
 8.2235804e+00   6.9867821e+03
 8.2282600e+00   7.0829435e+03
 8.2329397e+00   7.1436485e+03
 8.2376204e+00   7.2144613e+03
 8.2423000e+00   7.2343404e+03
 8.2469797e+00   7.2908663e+03
 8.2516603e+00   7.2848131e+03
 8.2563400e+00   7.2789255e+03
 8.2610197e+00   7.2463061e+03
 8.2657003e+00   7.2225268e+03
 8.2703800e+00   7.1743796e+03
 8.2750597e+00   7.1243705e+03
 8.2797403e+00   7.0712728e+03
 8.2844200e+00   7.0157191e+03
 8.2890997e+00   6.9575034e+03
 8.2937803e+00   6.8697303e+03
 8.2984600e+00   6.7942303e+03
 8.3031397e+00   6.6777433e+03
 8.3078203e+00   6.5815748e+03
 8.3125000e+00   6.4421761e+03
 8.3171797e+00   6.3728974e+03
 8.3218603e+00   6.2160910e+03
 8.3265400e+00   6.1345716e+03
 8.3312197e+00   6.0389275e+03
 8.3359003e+00   5.9750151e+03
 8.3405800e+00   5.8739685e+03
 8.3452597e+00   5.8360720e+03
 8.3499403e+00   5.7726002e+03
 8.3546200e+00   5.7539766e+03
 8.3592997e+00   5.7161099e+03
 8.3639803e+00   5.7353238e+03
 8.3686600e+00   5.7717893e+03
 8.3733397e+00   5.8990041e+03
 8.3780203e+00   6.0747235e+03
 8.3827000e+00   6.3411361e+03
 8.3873796e+00   6.6154933e+03
 8.3920603e+00   7.1278729e+03
 8.3967400e+00   7.7398262e+03
 8.4014196e+00   8.1898043e+03
 8.4061003e+00   8.6435953e+03
 8.4107800e+00   8.5972675e+03
 8.4154596e+00   8.2855782e+03
 8.4201403e+00   7.9438282e+03
 8.4248199e+00   7.3066243e+03
 8.4294996e+00   6.8181362e+03
 8.4341803e+00   6.4873536e+03
 8.4388599e+00   6.3147062e+03
 8.4435396e+00   6.1747213e+03
 8.4482203e+00   6.0485581e+03
 8.4528999e+00   6.0040758e+03
 8.4575796e+00   6.0174553e+03
 8.4622602e+00   6.0248370e+03
 8.4669399e+00   6.0610715e+03
 8.4716196e+00   6.0792315e+03
 8.4763002e+00   6.1215844e+03
 8.4809799e+00   6.1399698e+03
 8.4856596e+00   6.1915577e+03
 8.4903402e+00   6.2086695e+03
 8.4950199e+00   6.2716540e+03
 8.4996996e+00   6.2861309e+03
 8.5043802e+00   6.3268783e+03
 8.5090599e+00   6.3480135e+03
 8.5137396e+00   6.3783433e+03
 8.5184202e+00   6.3865240e+03
 8.5230999e+00   6.4410058e+03
 8.5277796e+00   6.4563632e+03
 8.5324602e+00   6.4831309e+03
 8.5371399e+00   6.4989372e+03
 8.5418196e+00   6.5345300e+03
 8.5465002e+00   6.5426603e+03
 8.5511799e+00   6.5579784e+03
 8.5558596e+00   6.5858594e+03
 8.5605402e+00   6.5485347e+03
 8.5652199e+00   6.5680310e+03
 8.5698996e+00   6.5174267e+03
 8.5745802e+00   6.5055301e+03
 8.5792599e+00   6.4746463e+03
 8.5839396e+00   6.4522939e+03
 8.5886202e+00   6.3849185e+03
 8.5932999e+00   6.3768599e+03
 8.5979795e+00   6.3058849e+03
 8.6026602e+00   6.2704716e+03
 8.6073399e+00   6.2078796e+03
 8.6120195e+00   6.1702741e+03
 8.6167002e+00   6.1229783e+03
 8.6213799e+00   6.0602357e+03
 8.6260595e+00   6.0234987e+03
 8.6307402e+00   5.9532000e+03
 8.6354198e+00   5.9233458e+03
 8.6400995e+00   5.8870033e+03
 8.6447802e+00   5.8444182e+03
 8.6494598e+00   5.7892993e+03
 8.6541405e+00   5.7773869e+03
 8.6588202e+00   5.7281742e+03
 8.6634998e+00   5.7126417e+03
 8.6681805e+00   5.6853068e+03
 8.6728601e+00   5.6753391e+03
 8.6775398e+00   5.6434820e+03
 8.6822205e+00   5.6327395e+03
 8.6869001e+00   5.6095144e+03
 8.6915798e+00   5.6015722e+03
 8.6962605e+00   5.5937044e+03
 8.7009401e+00   5.5867237e+03
 8.7056198e+00   5.5810143e+03
 8.7103004e+00   5.5658898e+03
 8.7149801e+00   5.5669276e+03
 8.7196598e+00   5.5381004e+03
 8.7243404e+00   5.5482042e+03
 8.7290201e+00   5.5344669e+03
 8.7336998e+00   5.5299533e+03
 8.7383804e+00   5.5104554e+03
 8.7430601e+00   5.5160219e+03
 8.7477398e+00   5.5105318e+03
 8.7524204e+00   5.5001118e+03
 8.7571001e+00   5.4718374e+03
 8.7617798e+00   5.4750608e+03
 8.7664604e+00   5.4662483e+03
 8.7711401e+00   5.4512350e+03
 8.7758198e+00   5.4371484e+03
 8.7805004e+00   5.4284091e+03
 8.7851801e+00   5.4213846e+03
 8.7898598e+00   5.4078486e+03
 8.7945404e+00   5.3969238e+03
 8.7992201e+00   5.3680072e+03
 8.8038998e+00   5.3709239e+03
 8.8085804e+00   5.3432251e+03
 8.8132601e+00   5.3523165e+03
 8.8179398e+00   5.3317588e+03
 8.8226204e+00   5.3207477e+03
 8.8273001e+00   5.2871389e+03
 8.8319798e+00   5.2881606e+03
 8.8366604e+00   5.2610852e+03
 8.8413401e+00   5.2544620e+03
 8.8460197e+00   5.2146497e+03
 8.8507004e+00   5.2063331e+03
 8.8553801e+00   5.1736664e+03
 8.8600597e+00   5.1552470e+03
 8.8647404e+00   5.1477804e+03
 8.8694201e+00   5.1124875e+03
 8.8740997e+00   5.0943479e+03
 8.8787804e+00   5.0810340e+03
 8.8834600e+00   5.0587850e+03
 8.8881397e+00   5.0399900e+03
 8.8928204e+00   5.0564636e+03
 8.8975000e+00   5.0264686e+03
 8.9021797e+00   5.0300824e+03
 8.9068604e+00   5.0109179e+03
 8.9115400e+00   4.9986386e+03
 8.9162197e+00   5.0013433e+03
 8.9209003e+00   5.0008648e+03
 8.9255800e+00   5.0066333e+03
 8.9302597e+00   4.9923618e+03
 8.9349403e+00   4.9819870e+03
 8.9396200e+00   4.9811576e+03
 8.9442997e+00   4.9865028e+03
 8.9489803e+00   4.9734242e+03
 8.9536600e+00   4.9926852e+03
 8.9583397e+00   4.9823453e+03
 8.9630203e+00   4.9964899e+03
 8.9677000e+00   4.9856623e+03
 8.9723797e+00   4.9930500e+03
 8.9770603e+00   4.9817671e+03
 8.9817400e+00   4.9926463e+03
 8.9864197e+00   4.9834415e+03
 8.9911003e+00   4.9871969e+03
 8.9957800e+00   4.9784169e+03
 9.0004597e+00   4.9782745e+03
 9.0051403e+00   4.9736111e+03
 9.0098200e+00   4.9814538e+03
 9.0144997e+00   4.9824158e+03
 9.0191803e+00   4.9714089e+03
 9.0238600e+00   4.9544856e+03
 9.0285397e+00   4.9466793e+03
 9.0332203e+00   4.9352062e+03
 9.0379000e+00   4.9329919e+03
 9.0425797e+00   4.9269621e+03
 9.0472603e+00   4.9203816e+03
 9.0519400e+00   4.9267818e+03
 9.0566196e+00   4.9094276e+03
 9.0613003e+00   4.9215354e+03
 9.0659800e+00   4.9251478e+03
 9.0706596e+00   4.9318147e+03
 9.0753403e+00   4.9256949e+03
 9.0800200e+00   4.9336544e+03
 9.0846996e+00   4.9205260e+03
 9.0893803e+00   4.9245050e+03
 9.0940599e+00   4.9250665e+03
 9.0987396e+00   4.9180763e+03
 9.1034203e+00   4.9307360e+03
 9.1080999e+00   4.9300130e+03
 9.1127796e+00   4.9292747e+03
 9.1174603e+00   4.9360929e+03
 9.1221399e+00   4.9434893e+03
 9.1268196e+00   4.9533346e+03
 9.1315002e+00   4.9656529e+03
 9.1361799e+00   4.9490801e+03
 9.1408596e+00   4.9751387e+03
 9.1455402e+00   4.9743857e+03
 9.1502199e+00   4.9849958e+03
 9.1548996e+00   4.9977906e+03
 9.1595802e+00   4.9931936e+03
 9.1642599e+00   5.0132253e+03
 9.1689396e+00   5.0157646e+03
 9.1736202e+00   5.0354124e+03
 9.1782999e+00   5.0492899e+03
 9.1829796e+00   5.0630531e+03
 9.1876602e+00   5.0757264e+03
 9.1923399e+00   5.0896853e+03
 9.1970196e+00   5.0997394e+03
 9.2017002e+00   5.1285040e+03
 9.2063799e+00   5.1340248e+03
 9.2110596e+00   5.1669736e+03
 9.2157402e+00   5.1997908e+03
 9.2204199e+00   5.2105641e+03
 9.2250996e+00   5.2438243e+03
 9.2297802e+00   5.2723694e+03
 9.2344599e+00   5.2954778e+03
 9.2391396e+00   5.3292261e+03
 9.2438202e+00   5.3520426e+03
 9.2484999e+00   5.3855417e+03
 9.2531796e+00   5.4262934e+03
 9.2578602e+00   5.4593439e+03
 9.2625399e+00   5.4942354e+03
 9.2672195e+00   5.5307825e+03
 9.2719002e+00   5.5602278e+03
 9.2765799e+00   5.5915933e+03
 9.2812595e+00   5.6145777e+03
 9.2859402e+00   5.6356195e+03
 9.2906199e+00   5.6646831e+03
 9.2952995e+00   5.6815754e+03
 9.2999802e+00   5.6989791e+03
 9.3046598e+00   5.7143096e+03
 9.3093395e+00   5.7134623e+03
 9.3140202e+00   5.7322038e+03
 9.3186998e+00   5.7302497e+03
 9.3233805e+00   5.7362326e+03
 9.3280602e+00   5.7369326e+03
 9.3327398e+00   5.7400908e+03
 9.3374205e+00   5.7317684e+03
 9.3421001e+00   5.7231728e+03
 9.3467798e+00   5.7248490e+03
 9.3514605e+00   5.7122210e+03
 9.3561401e+00   5.6959005e+03
 9.3608198e+00   5.6756546e+03
 9.3655005e+00   5.6615648e+03
 9.3701801e+00   5.6282633e+03
 9.3748598e+00   5.5975180e+03
 9.3795404e+00   5.5842067e+03
 9.3842201e+00   5.5477277e+03
 9.3888998e+00   5.5253172e+03
 9.3935804e+00   5.4994157e+03
 9.3982601e+00   5.4551653e+03
 9.4029398e+00   5.4341467e+03
 9.4076204e+00   5.4012280e+03
 9.4123001e+00   5.3788805e+03
 9.4169798e+00   5.3620042e+03
 9.4216604e+00   5.3439323e+03
 9.4263401e+00   5.3339270e+03
 9.4310198e+00   5.2930323e+03
 9.4357004e+00   5.2830254e+03
 9.4403801e+00   5.2839873e+03
 9.4450598e+00   5.2561369e+03
 9.4497404e+00   5.2620044e+03
 9.4544201e+00   5.2546090e+03
 9.4590998e+00   5.2421242e+03
 9.4637804e+00   5.2639247e+03
 9.4684601e+00   5.2494267e+03
 9.4731398e+00   5.2651328e+03
 9.4778204e+00   5.2719139e+03
 9.4825001e+00   5.2679967e+03
 9.4871798e+00   5.2837813e+03
 9.4918604e+00   5.2854713e+03
 9.4965401e+00   5.2861953e+03
 9.5012197e+00   5.2952228e+03
 9.5059004e+00   5.2893384e+03
 9.5105801e+00   5.2851444e+03
 9.5152597e+00   5.2890954e+03
 9.5199404e+00   5.2835398e+03
 9.5246201e+00   5.2789896e+03
 9.5292997e+00   5.2852613e+03
 9.5339804e+00   5.2818746e+03
 9.5386600e+00   5.2953894e+03
 9.5433397e+00   5.2788273e+03
 9.5480204e+00   5.2904825e+03
 9.5527000e+00   5.2861487e+03
 9.5573797e+00   5.2909010e+03
 9.5620604e+00   5.2959730e+03
 9.5667400e+00   5.3003597e+03
 9.5714197e+00   5.3092063e+03
 9.5761003e+00   5.3262934e+03
 9.5807800e+00   5.3094474e+03
 9.5854597e+00   5.3206864e+03
 9.5901403e+00   5.3325429e+03
 9.5948200e+00   5.3325272e+03
 9.5994997e+00   5.3383323e+03
 9.6041803e+00   5.3455485e+03
 9.6088600e+00   5.3485959e+03
 9.6135397e+00   5.3549334e+03
 9.6182203e+00   5.3523233e+03
 9.6229000e+00   5.3341189e+03
 9.6275797e+00   5.3452510e+03
 9.6322603e+00   5.3280869e+03
 9.6369400e+00   5.3311776e+03
 9.6416197e+00   5.3298911e+03
 9.6463003e+00   5.2874123e+03
 9.6509800e+00   5.2982618e+03
 9.6556597e+00   5.2947619e+03
 9.6603403e+00   5.2826341e+03
 9.6650200e+00   5.2880393e+03
 9.6696997e+00   5.2787182e+03
 9.6743803e+00   5.2808474e+03
 9.6790600e+00   5.2790740e+03
 9.6837397e+00   5.2540386e+03
 9.6884203e+00   5.2658536e+03
 9.6931000e+00   5.2451412e+03
 9.6977797e+00   5.2380878e+03
 9.7024603e+00   5.2192801e+03
 9.7071400e+00   5.2053813e+03
 9.7118196e+00   5.1859113e+03
 9.7165003e+00   5.1730043e+03
 9.7211800e+00   5.1459582e+03
 9.7258596e+00   5.1334046e+03
 9.7305403e+00   5.1210248e+03
 9.7352200e+00   5.1053853e+03
 9.7398996e+00   5.0933333e+03
 9.7445803e+00   5.0899556e+03
 9.7492599e+00   5.0786352e+03
 9.7539396e+00   5.0889891e+03
 9.7586203e+00   5.0798352e+03
 9.7632999e+00   5.0843214e+03
 9.7679796e+00   5.0854350e+03
 9.7726603e+00   5.0888798e+03
 9.7773399e+00   5.1219781e+03
 9.7820196e+00   5.1117377e+03
 9.7867002e+00   5.1457103e+03
 9.7913799e+00   5.1757704e+03
 9.7960596e+00   5.2028264e+03
 9.8007402e+00   5.2368498e+03
 9.8054199e+00   5.2961167e+03
 9.8100996e+00   5.3703998e+03
 9.8147802e+00   5.4582396e+03
 9.8194599e+00   5.5911766e+03
 9.8241396e+00   5.7949984e+03
 9.8288202e+00   6.0463660e+03
 9.8334999e+00   6.5518937e+03
 9.8381796e+00   7.2668385e+03
 9.8428602e+00   8.2106916e+03
 9.8475399e+00   9.5966391e+03
 9.8522196e+00   1.0630502e+04
 9.8569002e+00   1.1998271e+04
 9.8615799e+00   1.2547003e+04
 9.8662596e+00   1.2650192e+04
 9.8709402e+00   1.1692604e+04
 9.8756199e+00   1.0834628e+04
 9.8802996e+00   9.2806827e+03
 9.8849802e+00   8.1147146e+03
 9.8896599e+00   7.2837608e+03
 9.8943396e+00   6.7156906e+03
 9.8990202e+00   6.2713960e+03
 9.9036999e+00   5.9721806e+03
 9.9083796e+00   5.8007611e+03
 9.9130602e+00   5.6742904e+03
 9.9177399e+00   5.6147643e+03
 9.9224195e+00   5.5609004e+03
 9.9271002e+00   5.5463052e+03
 9.9317799e+00   5.5155986e+03
 9.9364595e+00   5.5062196e+03
 9.9411402e+00   5.4838749e+03
 9.9458199e+00   5.4704624e+03
 9.9504995e+00   5.4807313e+03
 9.9551802e+00   5.4773831e+03
 9.9598598e+00   5.4584633e+03
 9.9645395e+00   5.4559988e+03
 9.9692202e+00   5.4513220e+03
 9.9738998e+00   5.4475219e+03
 9.9785805e+00   5.4324230e+03
 9.9832602e+00   5.4341714e+03
 9.9879398e+00   5.4304065e+03
 9.9926205e+00   5.4222140e+03
 9.9973001e+00   5.4286979e+03
 1.0001980e+01   5.4212855e+03
 1.0006660e+01   5.4060340e+03
 1.0011340e+01   5.3923952e+03
 1.0016020e+01   5.3867315e+03
 1.0020700e+01   5.3794775e+03
 1.0025380e+01   5.3470389e+03
 1.0030060e+01   5.3341941e+03
 1.0034740e+01   5.3160207e+03
 1.0039420e+01   5.3047558e+03
 1.0044100e+01   5.2884081e+03
 1.0048780e+01   5.2862025e+03
 1.0053460e+01   5.2699031e+03
 1.0058140e+01   5.2646503e+03
 1.0062820e+01   5.2431177e+03
 1.0067500e+01   5.2402811e+03
 1.0072180e+01   5.2233514e+03
 1.0076860e+01   5.2271404e+03
 1.0081540e+01   5.2199915e+03
 1.0086220e+01   5.2117603e+03
 1.0090900e+01   5.2005648e+03
 1.0095580e+01   5.2022505e+03
 1.0100260e+01   5.1957582e+03
 1.0104940e+01   5.2046813e+03
 1.0109620e+01   5.2025420e+03
 1.0114300e+01   5.2016061e+03
 1.0118980e+01   5.2107196e+03
 1.0123660e+01   5.2051254e+03
 1.0128340e+01   5.2092117e+03
 1.0133020e+01   5.2115909e+03
 1.0137700e+01   5.2319008e+03
 1.0142380e+01   5.2303312e+03
 1.0147060e+01   5.2383557e+03
 1.0151740e+01   5.2460174e+03
 1.0156420e+01   5.2505348e+03
 1.0161100e+01   5.2586422e+03
 1.0165780e+01   5.2586564e+03
 1.0170460e+01   5.2748867e+03
 1.0175140e+01   5.2922812e+03
 1.0179820e+01   5.2905669e+03
 1.0184500e+01   5.3006146e+03
 1.0189180e+01   5.2940373e+03
 1.0193860e+01   5.3262742e+03
 1.0198540e+01   5.3411703e+03
 1.0203220e+01   5.3435846e+03
 1.0207900e+01   5.3650047e+03
 1.0212580e+01   5.3623826e+03
 1.0217260e+01   5.3759120e+03
 1.0221940e+01   5.3743431e+03
 1.0226620e+01   5.3914168e+03
 1.0231300e+01   5.4168788e+03
 1.0235980e+01   5.4098216e+03
 1.0240660e+01   5.4119476e+03
 1.0245340e+01   5.4241388e+03
 1.0250020e+01   5.4131400e+03
 1.0254700e+01   5.4677523e+03
 1.0259380e+01   5.4998050e+03
 1.0264060e+01   5.5747510e+03
 1.0268740e+01   5.7087751e+03
 1.0273420e+01   5.8875275e+03
 1.0278100e+01   6.2168249e+03
 1.0282780e+01   6.6180417e+03
 1.0287460e+01   7.1387782e+03
 1.0292140e+01   7.8325474e+03
 1.0296820e+01   8.3104140e+03
 1.0301500e+01   8.5905826e+03
 1.0306180e+01   8.3629905e+03
 1.0310860e+01   8.2103102e+03
 1.0315540e+01   7.6232448e+03
 1.0320220e+01   6.9263834e+03
 1.0324900e+01   6.4422722e+03
 1.0329580e+01   6.0163812e+03
 1.0334260e+01   5.6962941e+03
 1.0338940e+01   5.4820303e+03
 1.0343620e+01   5.3469582e+03
 1.0348300e+01   5.2861050e+03
 1.0352980e+01   5.2210095e+03
 1.0357660e+01   5.1994390e+03
 1.0362340e+01   5.1730828e+03
 1.0367020e+01   5.1622803e+03
 1.0371700e+01   5.1555160e+03
 1.0376380e+01   5.1604940e+03
 1.0381060e+01   5.1534623e+03
 1.0385740e+01   5.1467701e+03
 1.0390420e+01   5.1405686e+03
 1.0395100e+01   5.1540045e+03
 1.0399780e+01   5.1538538e+03
 1.0404460e+01   5.1416996e+03
 1.0409140e+01   5.1646473e+03
 1.0413820e+01   5.1549773e+03
 1.0418500e+01   5.1560151e+03
 1.0423180e+01   5.1752986e+03
 1.0427860e+01   5.1506386e+03
 1.0432540e+01   5.1671291e+03
 1.0437220e+01   5.1816755e+03
 1.0441900e+01   5.1771906e+03
 1.0446580e+01   5.1993397e+03
 1.0451260e+01   5.1965478e+03
 1.0455940e+01   5.1962063e+03
 1.0460620e+01   5.2132574e+03
 1.0465300e+01   5.2197067e+03
 1.0469980e+01   5.2320457e+03
 1.0474660e+01   5.2303964e+03
 1.0479340e+01   5.2388909e+03
 1.0484020e+01   5.2490775e+03
 1.0488700e+01   5.2403299e+03
 1.0493380e+01   5.2570933e+03
 1.0498060e+01   5.2588024e+03
 1.0502740e+01   5.2599584e+03
 1.0507420e+01   5.2501654e+03
 1.0512100e+01   5.2565628e+03
 1.0516780e+01   5.2398475e+03
 1.0521460e+01   5.2404565e+03
 1.0526140e+01   5.2443846e+03
 1.0530820e+01   5.2321058e+03
 1.0535500e+01   5.2363748e+03
 1.0540180e+01   5.2261737e+03
 1.0544860e+01   5.2164645e+03
 1.0549540e+01   5.1886781e+03
 1.0554220e+01   5.1951225e+03
 1.0558900e+01   5.1914171e+03
 1.0563580e+01   5.1740691e+03
 1.0568260e+01   5.1688147e+03
 1.0572940e+01   5.1485316e+03
 1.0577620e+01   5.1479015e+03
 1.0582300e+01   5.1271895e+03
 1.0586980e+01   5.1356235e+03
 1.0591660e+01   5.1192331e+03
 1.0596340e+01   5.1084194e+03
 1.0601020e+01   5.0878178e+03
 1.0605700e+01   5.0952775e+03
 1.0610380e+01   5.0886839e+03
 1.0615060e+01   5.0847188e+03
 1.0619740e+01   5.0674070e+03
 1.0624420e+01   5.0613555e+03
 1.0629100e+01   5.0732602e+03
 1.0633780e+01   5.0606644e+03
 1.0638460e+01   5.0583809e+03
 1.0643140e+01   5.0432165e+03
 1.0647820e+01   5.0517266e+03
 1.0652500e+01   5.0496389e+03
 1.0657180e+01   5.0510526e+03
 1.0661860e+01   5.0405721e+03
 1.0666540e+01   5.0473227e+03
 1.0671220e+01   5.0351484e+03
 1.0675900e+01   5.0302811e+03
 1.0680580e+01   5.0446707e+03
 1.0685260e+01   5.0268119e+03
 1.0689940e+01   5.0559623e+03
 1.0694620e+01   5.0403255e+03
 1.0699300e+01   5.0390287e+03
 1.0703980e+01   5.0406534e+03
 1.0708660e+01   5.0541213e+03
 1.0713340e+01   5.0554870e+03
 1.0718020e+01   5.0652603e+03
 1.0722700e+01   5.0650680e+03
 1.0727380e+01   5.0967046e+03
 1.0732060e+01   5.0856013e+03
 1.0736740e+01   5.0870373e+03
 1.0741420e+01   5.1045223e+03
 1.0746100e+01   5.1094293e+03
 1.0750780e+01   5.1273101e+03
 1.0755460e+01   5.1172480e+03
 1.0760140e+01   5.1205557e+03
 1.0764820e+01   5.1275038e+03
 1.0769500e+01   5.1258848e+03
 1.0774180e+01   5.1190549e+03
 1.0778860e+01   5.1170344e+03
 1.0783540e+01   5.0978380e+03
 1.0788220e+01   5.1196271e+03
 1.0792900e+01   5.0990254e+03
 1.0797580e+01   5.1077681e+03
 1.0802260e+01   5.1017592e+03
 1.0806940e+01   5.1104198e+03
 1.0811620e+01   5.1026473e+03
 1.0816300e+01   5.0918159e+03
 1.0820980e+01   5.0901860e+03
 1.0825660e+01   5.0776354e+03
 1.0830340e+01   5.0894044e+03
 1.0835020e+01   5.0683673e+03
 1.0839700e+01   5.0804279e+03
 1.0844380e+01   5.0615835e+03
 1.0849060e+01   5.0684155e+03
 1.0853740e+01   5.0498875e+03
 1.0858420e+01   5.0517804e+03
 1.0863100e+01   5.0556002e+03
 1.0867780e+01   5.0407075e+03
 1.0872460e+01   5.0367974e+03
 1.0877140e+01   5.0241723e+03
 1.0881820e+01   5.0040116e+03
 1.0886500e+01   5.0043892e+03
 1.0891180e+01   4.9822727e+03
 1.0895860e+01   4.9775863e+03
 1.0900540e+01   4.9660529e+03
 1.0905220e+01   4.9510332e+03
 1.0909900e+01   4.9486874e+03
 1.0914580e+01   4.9302674e+03
 1.0919260e+01   4.9176551e+03
 1.0923940e+01   4.9168080e+03
 1.0928620e+01   4.8970286e+03
 1.0933300e+01   4.8926820e+03
 1.0937980e+01   4.8942271e+03
 1.0942660e+01   4.8754861e+03
 1.0947340e+01   4.8610289e+03
 1.0952020e+01   4.8648661e+03
 1.0956700e+01   4.8427032e+03
 1.0961380e+01   4.8575502e+03
 1.0966060e+01   4.8361665e+03
 1.0970740e+01   4.8474802e+03
 1.0975420e+01   4.8394845e+03
 1.0980100e+01   4.8370873e+03
 1.0984780e+01   4.8220648e+03
 1.0989460e+01   4.8177260e+03
 1.0994140e+01   4.8037957e+03
 1.0998820e+01   4.8130783e+03
 1.1003500e+01   4.7987183e+03
 1.1008180e+01   4.8129046e+03
 1.1012860e+01   4.8099082e+03
 1.1017540e+01   4.8018802e+03
 1.1022220e+01   4.8183527e+03
 1.1026900e+01   4.8072537e+03
 1.1031580e+01   4.8181051e+03
 1.1036260e+01   4.8177771e+03
 1.1040940e+01   4.8213013e+03
 1.1045620e+01   4.8282949e+03
 1.1050300e+01   4.8193404e+03
 1.1054980e+01   4.8341540e+03
 1.1059660e+01   4.8511774e+03
 1.1064340e+01   4.8393724e+03
 1.1069020e+01   4.8459297e+03
 1.1073700e+01   4.8652664e+03
 1.1078380e+01   4.8710910e+03
 1.1083060e+01   4.8853192e+03
 1.1087740e+01   4.8924785e+03
 1.1092420e+01   4.9076758e+03
 1.1097100e+01   4.9309124e+03
 1.1101780e+01   4.9311214e+03
 1.1106460e+01   4.9578225e+03
 1.1111140e+01   4.9763687e+03
 1.1115820e+01   4.9866048e+03
 1.1120500e+01   5.0148476e+03
 1.1125180e+01   5.0250248e+03
 1.1129860e+01   5.0269420e+03
 1.1134540e+01   5.0320030e+03
 1.1139220e+01   5.0365985e+03
 1.1143900e+01   5.0293272e+03
 1.1148580e+01   5.0390188e+03
 1.1153260e+01   5.0203730e+03
 1.1157940e+01   5.0233955e+03
 1.1162620e+01   5.0066328e+03
 1.1167300e+01   4.9773140e+03
 1.1171980e+01   4.9852507e+03
 1.1176660e+01   4.9703238e+03
 1.1181340e+01   4.9625837e+03
 1.1186020e+01   4.9379277e+03
 1.1190700e+01   4.9379564e+03
 1.1195380e+01   4.9194950e+03
 1.1200060e+01   4.9018773e+03
 1.1204740e+01   4.8985477e+03
 1.1209420e+01   4.8931241e+03
 1.1214100e+01   4.8794280e+03
 1.1218780e+01   4.8721410e+03
 1.1223460e+01   4.8618775e+03
 1.1228140e+01   4.8697952e+03
 1.1232820e+01   4.8617489e+03
 1.1237500e+01   4.8410866e+03
 1.1242180e+01   4.8486106e+03
 1.1246860e+01   4.8293622e+03
 1.1251540e+01   4.8186725e+03
 1.1256220e+01   4.8013657e+03
 1.1260900e+01   4.7946441e+03
 1.1265580e+01   4.7848410e+03
 1.1270260e+01   4.7674766e+03
 1.1274940e+01   4.7509508e+03
 1.1279620e+01   4.7701307e+03
 1.1284300e+01   4.7480113e+03
 1.1288980e+01   4.7304180e+03
 1.1293660e+01   4.7222416e+03
 1.1298340e+01   4.7147580e+03
 1.1303020e+01   4.7059526e+03
 1.1307700e+01   4.6954705e+03
 1.1312380e+01   4.6911716e+03
 1.1317060e+01   4.6845760e+03
 1.1321740e+01   4.6774603e+03
 1.1326420e+01   4.6701732e+03
 1.1331100e+01   4.6594274e+03
 1.1335780e+01   4.6432499e+03
 1.1340460e+01   4.6337839e+03
 1.1345140e+01   4.6406182e+03
 1.1349820e+01   4.6161498e+03
 1.1354500e+01   4.6285672e+03
 1.1359180e+01   4.6106049e+03
 1.1363860e+01   4.6093520e+03
 1.1368540e+01   4.5993664e+03
 1.1373220e+01   4.5866749e+03
 1.1377900e+01   4.6006962e+03
 1.1382580e+01   4.5697027e+03
 1.1387260e+01   4.5708287e+03
 1.1391940e+01   4.5723178e+03
 1.1396620e+01   4.5572460e+03
 1.1401300e+01   4.5649463e+03
 1.1405980e+01   4.5673476e+03
 1.1410660e+01   4.5499517e+03
 1.1415340e+01   4.5540168e+03
 1.1420020e+01   4.5300240e+03
 1.1424700e+01   4.5340205e+03
 1.1429380e+01   4.5443626e+03
 1.1434060e+01   4.5303484e+03
 1.1438740e+01   4.5320971e+03
 1.1443420e+01   4.5313690e+03
 1.1448100e+01   4.5246374e+03
 1.1452780e+01   4.5264056e+03
 1.1457460e+01   4.5111795e+03
 1.1462140e+01   4.5175808e+03
 1.1466820e+01   4.5257874e+03
 1.1471500e+01   4.5139278e+03
 1.1476180e+01   4.5191409e+03
 1.1480860e+01   4.5057375e+03
 1.1485540e+01   4.5143011e+03
 1.1490220e+01   4.5055686e+03
 1.1494900e+01   4.4899671e+03
 1.1499580e+01   4.4942537e+03
 1.1504260e+01   4.4925062e+03
 1.1508940e+01   4.4769933e+03
 1.1513620e+01   4.4820125e+03
 1.1518300e+01   4.4740521e+03
 1.1522980e+01   4.4623851e+03
 1.1527660e+01   4.4810994e+03
 1.1532340e+01   4.4572002e+03
 1.1537020e+01   4.4637596e+03
 1.1541700e+01   4.4594436e+03
 1.1546380e+01   4.4452661e+03
 1.1551060e+01   4.4437538e+03
 1.1555740e+01   4.4429104e+03
 1.1560420e+01   4.4329369e+03
 1.1565100e+01   4.4306878e+03
 1.1569780e+01   4.4259359e+03
 1.1574460e+01   4.4267986e+03
 1.1579140e+01   4.4136134e+03
 1.1583820e+01   4.4131929e+03
 1.1588500e+01   4.4153353e+03
 1.1593180e+01   4.4238256e+03
 1.1597860e+01   4.4218977e+03
 1.1602540e+01   4.4139332e+03
 1.1607220e+01   4.4115885e+03
 1.1611900e+01   4.4164607e+03
 1.1616580e+01   4.4064019e+03
 1.1621260e+01   4.4177354e+03
 1.1625940e+01   4.4057794e+03
 1.1630620e+01   4.4053031e+03
 1.1635300e+01   4.4033297e+03
 1.1639980e+01   4.4011819e+03
 1.1644660e+01   4.3927758e+03
 1.1649340e+01   4.3860239e+03
 1.1654020e+01   4.3894214e+03
 1.1658700e+01   4.3854079e+03
 1.1663380e+01   4.3812443e+03
 1.1668060e+01   4.3690454e+03
 1.1672740e+01   4.3807024e+03
 1.1677420e+01   4.3712998e+03
 1.1682100e+01   4.3712756e+03
 1.1686780e+01   4.3698809e+03
 1.1691460e+01   4.3642009e+03
 1.1696140e+01   4.3549735e+03
 1.1700820e+01   4.3584827e+03
 1.1705500e+01   4.3525378e+03
 1.1710180e+01   4.3584620e+03
 1.1714860e+01   4.3518284e+03
 1.1719540e+01   4.3498748e+03
 1.1724220e+01   4.3549658e+03
 1.1728900e+01   4.3522606e+03
 1.1733580e+01   4.3543222e+03
 1.1738260e+01   4.3554598e+03
 1.1742940e+01   4.3583264e+03
 1.1747620e+01   4.3457750e+03
 1.1752300e+01   4.3500781e+03
 1.1756980e+01   4.3481810e+03
 1.1761660e+01   4.3494888e+03
 1.1766340e+01   4.3447305e+03
 1.1771020e+01   4.3588367e+03
 1.1775700e+01   4.3484600e+03
 1.1780380e+01   4.3501882e+03
 1.1785060e+01   4.3513214e+03
 1.1789740e+01   4.3536058e+03
 1.1794420e+01   4.3594847e+03
 1.1799100e+01   4.3571689e+03
 1.1803780e+01   4.3674727e+03
 1.1808460e+01   4.3660559e+03
 1.1813140e+01   4.3629095e+03
 1.1817820e+01   4.3723070e+03
 1.1822500e+01   4.3770124e+03
 1.1827180e+01   4.3794524e+03
 1.1831860e+01   4.3867934e+03
 1.1836540e+01   4.3798872e+03
 1.1841220e+01   4.3827732e+03
 1.1845900e+01   4.3931803e+03
 1.1850580e+01   4.4099484e+03
 1.1855260e+01   4.4161932e+03
 1.1859940e+01   4.4266037e+03
 1.1864620e+01   4.4442259e+03
 1.1869300e+01   4.4654938e+03
 1.1873980e+01   4.5163910e+03
 1.1878660e+01   4.5806188e+03
 1.1883340e+01   4.6547533e+03
 1.1888020e+01   4.7454152e+03
 1.1892700e+01   4.8600653e+03
 1.1897380e+01   4.9592696e+03
 1.1902060e+01   5.0143773e+03
 1.1906740e+01   5.0284687e+03
 1.1911420e+01   4.9740888e+03
 1.1916100e+01   4.9255265e+03
 1.1920780e+01   4.8040241e+03
 1.1925460e+01   4.7246088e+03
 1.1930140e+01   4.6499070e+03
 1.1934820e+01   4.5947406e+03
 1.1939500e+01   4.5730450e+03
 1.1944180e+01   4.5302427e+03
 1.1948860e+01   4.5182291e+03
 1.1953540e+01   4.5201876e+03
 1.1958220e+01   4.5154910e+03
 1.1962900e+01   4.5171947e+03
 1.1967580e+01   4.5346090e+03
 1.1972260e+01   4.5255758e+03
 1.1976940e+01   4.5372104e+03
 1.1981620e+01   4.5378351e+03
 1.1986300e+01   4.5354418e+03
 1.1990980e+01   4.5545075e+03
 1.1995660e+01   4.5346122e+03
 1.2000340e+01   4.5397774e+03
 1.2005020e+01   4.5419684e+03
 1.2009700e+01   4.5356276e+03
 1.2014380e+01   4.5441236e+03
 1.2019060e+01   4.5414265e+03
 1.2023740e+01   4.5262491e+03
 1.2028420e+01   4.5304167e+03
 1.2033100e+01   4.5200902e+03
 1.2037780e+01   4.5195397e+03
 1.2042460e+01   4.5118652e+03
 1.2047140e+01   4.4999736e+03
 1.2051820e+01   4.4975268e+03
 1.2056500e+01   4.4997368e+03
 1.2061180e+01   4.4894078e+03
 1.2065860e+01   4.4917479e+03
 1.2070540e+01   4.4781857e+03
 1.2075220e+01   4.4747579e+03
 1.2079900e+01   4.4711920e+03
 1.2084580e+01   4.4641768e+03
 1.2089260e+01   4.4756407e+03
 1.2093940e+01   4.4588223e+03
 1.2098620e+01   4.4509483e+03
 1.2103300e+01   4.4495725e+03
 1.2107980e+01   4.4391886e+03
 1.2112660e+01   4.4345237e+03
 1.2117340e+01   4.4249459e+03
 1.2122020e+01   4.4139555e+03
 1.2126700e+01   4.3897312e+03
 1.2131380e+01   4.3832808e+03
 1.2136060e+01   4.3658786e+03
 1.2140740e+01   4.3542273e+03
 1.2145420e+01   4.3370744e+03
 1.2150100e+01   4.3243705e+03
 1.2154780e+01   4.3004182e+03
 1.2159460e+01   4.2843375e+03
 1.2164140e+01   4.2611555e+03
 1.2168820e+01   4.2438610e+03
 1.2173500e+01   4.2405791e+03
 1.2178180e+01   4.2228753e+03
 1.2182860e+01   4.2062098e+03
 1.2187540e+01   4.2090088e+03
 1.2192220e+01   4.1923828e+03
 1.2196900e+01   4.1804046e+03
 1.2201580e+01   4.1796871e+03
 1.2206260e+01   4.1602198e+03
 1.2210940e+01   4.1605939e+03
 1.2215620e+01   4.1466232e+03
 1.2220300e+01   4.1507325e+03
 1.2224980e+01   4.1547502e+03
 1.2229660e+01   4.1424601e+03
 1.2234340e+01   4.1421816e+03
 1.2239020e+01   4.1331272e+03
 1.2243700e+01   4.1374633e+03
 1.2248380e+01   4.1260313e+03
 1.2253060e+01   4.1183894e+03
 1.2257740e+01   4.1152907e+03
 1.2262420e+01   4.1184862e+03
 1.2267100e+01   4.1096196e+03
 1.2271780e+01   4.1003596e+03
 1.2276460e+01   4.1140420e+03
 1.2281140e+01   4.1144389e+03
 1.2285820e+01   4.1001737e+03
 1.2290500e+01   4.0982132e+03
 1.2295180e+01   4.1067717e+03
 1.2299860e+01   4.0950237e+03
 1.2304540e+01   4.1045133e+03
 1.2309220e+01   4.1084658e+03
 1.2313900e+01   4.1027509e+03
 1.2318580e+01   4.1004532e+03
 1.2323260e+01   4.1054575e+03
 1.2327940e+01   4.1026529e+03
 1.2332620e+01   4.1154762e+03
 1.2337300e+01   4.0998223e+03
 1.2341980e+01   4.1071299e+03
 1.2346660e+01   4.1146839e+03
 1.2351340e+01   4.1251828e+03
 1.2356020e+01   4.1195357e+03
 1.2360700e+01   4.1267762e+03
 1.2365380e+01   4.1321852e+03
 1.2370060e+01   4.1345044e+03
 1.2374740e+01   4.1406777e+03
 1.2379420e+01   4.1411477e+03
 1.2384100e+01   4.1411288e+03
 1.2388780e+01   4.1503247e+03
 1.2393460e+01   4.1506238e+03
 1.2398140e+01   4.1503059e+03
 1.2402820e+01   4.1374802e+03
 1.2407500e+01   4.1557185e+03
 1.2412180e+01   4.1495306e+03
 1.2416860e+01   4.1562120e+03
 1.2421540e+01   4.1578526e+03
 1.2426220e+01   4.1571157e+03
 1.2430900e+01   4.1653399e+03
 1.2435580e+01   4.1667322e+03
 1.2440260e+01   4.1695248e+03
 1.2444940e+01   4.1694016e+03
 1.2449620e+01   4.1629771e+03
 1.2454300e+01   4.1716717e+03
 1.2458980e+01   4.1836563e+03
 1.2463660e+01   4.1754282e+03
 1.2468340e+01   4.1932801e+03
 1.2473020e+01   4.1829550e+03
 1.2477700e+01   4.1808097e+03
 1.2482380e+01   4.1831970e+03
 1.2487060e+01   4.1823685e+03
 1.2491740e+01   4.1798297e+03
 1.2496420e+01   4.1841607e+03
 1.2501100e+01   4.1702677e+03
 1.2505780e+01   4.1816629e+03
 1.2510460e+01   4.1772515e+03
 1.2515140e+01   4.1671095e+03
 1.2519820e+01   4.1630828e+03
 1.2524500e+01   4.1703250e+03
 1.2529180e+01   4.1648067e+03
 1.2533860e+01   4.1654915e+03
 1.2538540e+01   4.1723127e+03
 1.2543220e+01   4.1504804e+03
 1.2547900e+01   4.1659098e+03
 1.2552580e+01   4.1563779e+03
 1.2557260e+01   4.1637650e+03
 1.2561940e+01   4.1633508e+03
 1.2566620e+01   4.1649267e+03
 1.2571300e+01   4.1698176e+03
 1.2575980e+01   4.1717328e+03
 1.2580660e+01   4.1849929e+03
 1.2585340e+01   4.1829912e+03
 1.2590020e+01   4.1876900e+03
 1.2594700e+01   4.1932093e+03
 1.2599380e+01   4.1953667e+03
 1.2604060e+01   4.2006825e+03
 1.2608740e+01   4.2218967e+03
 1.2613420e+01   4.2283140e+03
 1.2618100e+01   4.2283949e+03
 1.2622780e+01   4.2325057e+03
 1.2627460e+01   4.2362638e+03
 1.2632140e+01   4.2459223e+03
 1.2636820e+01   4.2452127e+03
 1.2641500e+01   4.2434340e+03
 1.2646180e+01   4.2516033e+03
 1.2650860e+01   4.2656759e+03
 1.2655540e+01   4.2514793e+03
 1.2660220e+01   4.2537358e+03
 1.2664900e+01   4.2663974e+03
 1.2669580e+01   4.2638873e+03
 1.2674260e+01   4.2554569e+03
 1.2678940e+01   4.2647835e+03
 1.2683620e+01   4.2480374e+03
 1.2688300e+01   4.2435198e+03
 1.2692980e+01   4.2482785e+03
 1.2697660e+01   4.2401654e+03
