MA2b-00005.tif Azm= 0.00
2-Theta Angle (Degrees)
Intensity
       2500
 1.0023400e+00   7.9900370e+03
 1.0070200e+00   7.9813758e+03
 1.0117000e+00   7.9606133e+03
 1.0163800e+00   7.9472212e+03
 1.0210600e+00   7.8934983e+03
 1.0257400e+00   7.8864755e+03
 1.0304199e+00   7.8176871e+03
 1.0351000e+00   7.8413859e+03
 1.0397800e+00   7.7944162e+03
 1.0444601e+00   7.7301953e+03
 1.0491400e+00   7.7194995e+03
 1.0538200e+00   7.7119252e+03
 1.0585001e+00   7.6917384e+03
 1.0631800e+00   7.6778539e+03
 1.0678600e+00   7.6611231e+03
 1.0725400e+00   7.6615192e+03
 1.0772200e+00   7.5893076e+03
 1.0819000e+00   7.5873050e+03
 1.0865800e+00   7.5562943e+03
 1.0912600e+00   7.5704079e+03
 1.0959400e+00   7.4848894e+03
 1.1006200e+00   7.4990005e+03
 1.1052999e+00   7.4724387e+03
 1.1099800e+00   7.4594970e+03
 1.1146600e+00   7.4901969e+03
 1.1193399e+00   7.4310886e+03
 1.1240200e+00   7.4216397e+03
 1.1287000e+00   7.4018367e+03
 1.1333801e+00   7.3839649e+03
 1.1380600e+00   7.3575516e+03
 1.1427400e+00   7.3471909e+03
 1.1474200e+00   7.3282326e+03
 1.1521000e+00   7.3523623e+03
 1.1567800e+00   7.3263062e+03
 1.1614600e+00   7.3054991e+03
 1.1661400e+00   7.3071101e+03
 1.1708200e+00   7.3026575e+03
 1.1755000e+00   7.2790792e+03
 1.1801800e+00   7.2694017e+03
 1.1848600e+00   7.2814097e+03
 1.1895400e+00   7.2779500e+03
 1.1942199e+00   7.2655625e+03
 1.1989000e+00   7.2593050e+03
 1.2035800e+00   7.2309469e+03
 1.2082601e+00   7.2445920e+03
 1.2129400e+00   7.2186533e+03
 1.2176200e+00   7.2041259e+03
 1.2223001e+00   7.2438329e+03
 1.2269800e+00   7.2027498e+03
 1.2316600e+00   7.1982186e+03
 1.2363400e+00   7.2084042e+03
 1.2410200e+00   7.1893666e+03
 1.2457000e+00   7.2101175e+03
 1.2503800e+00   7.1774993e+03
 1.2550600e+00   7.1900769e+03
 1.2597400e+00   7.1806634e+03
 1.2644200e+00   7.1670479e+03
 1.2691000e+00   7.2106099e+03
 1.2737800e+00   7.1535808e+03
 1.2784600e+00   7.2127145e+03
 1.2831399e+00   7.1551125e+03
 1.2878200e+00   7.1710421e+03
 1.2925000e+00   7.1651843e+03
 1.2971801e+00   7.1777880e+03
 1.3018600e+00   7.1800458e+03
 1.3065400e+00   7.2008913e+03
 1.3112200e+00   7.2141410e+03
 1.3159000e+00   7.1723164e+03
 1.3205800e+00   7.1684618e+03
 1.3252600e+00   7.1824708e+03
 1.3299400e+00   7.2160770e+03
 1.3346200e+00   7.1839704e+03
 1.3393000e+00   7.2183011e+03
 1.3439800e+00   7.1879326e+03
 1.3486600e+00   7.2287009e+03
 1.3533400e+00   7.2351129e+03
 1.3580199e+00   7.2187150e+03
 1.3627000e+00   7.2187337e+03
 1.3673800e+00   7.2553025e+03
 1.3720599e+00   7.2645201e+03
 1.3767400e+00   7.2719086e+03
 1.3814200e+00   7.2663711e+03
 1.3861001e+00   7.2892633e+03
 1.3907800e+00   7.3161008e+03
 1.3954600e+00   7.3219931e+03
 1.4001400e+00   7.3366619e+03
 1.4048200e+00   7.3475660e+03
 1.4095000e+00   7.3832031e+03
 1.4141800e+00   7.3818629e+03
 1.4188600e+00   7.3676298e+03
 1.4235400e+00   7.3820142e+03
 1.4282200e+00   7.4229856e+03
 1.4329000e+00   7.4380535e+03
 1.4375800e+00   7.4769630e+03
 1.4422600e+00   7.4569325e+03
 1.4469399e+00   7.5245225e+03
 1.4516200e+00   7.5594287e+03
 1.4563000e+00   7.6024669e+03
 1.4609801e+00   7.5940837e+03
 1.4656600e+00   7.6242863e+03
 1.4703400e+00   7.6430189e+03
 1.4750201e+00   7.6533506e+03
 1.4797000e+00   7.6867838e+03
 1.4843800e+00   7.7040649e+03
 1.4890600e+00   7.7246907e+03
 1.4937400e+00   7.7363115e+03
 1.4984200e+00   7.7610386e+03
 1.5031000e+00   7.7952190e+03
 1.5077800e+00   7.7885144e+03
 1.5124600e+00   7.8289118e+03
 1.5171400e+00   7.8095378e+03
 1.5218199e+00   7.8262215e+03
 1.5265000e+00   7.8297231e+03
 1.5311800e+00   7.8610906e+03
 1.5358599e+00   7.8230922e+03
 1.5405400e+00   7.8825253e+03
 1.5452200e+00   7.8165028e+03
 1.5499001e+00   7.8224240e+03
 1.5545800e+00   7.8127660e+03
 1.5592600e+00   7.8306163e+03
 1.5639400e+00   7.7902583e+03
 1.5686200e+00   7.7751855e+03
 1.5733000e+00   7.7806482e+03
 1.5779800e+00   7.7817315e+03
 1.5826600e+00   7.7452102e+03
 1.5873400e+00   7.7594092e+03
 1.5920200e+00   7.7572491e+03
 1.5967000e+00   7.7593283e+03
 1.6013800e+00   7.7334186e+03
 1.6060600e+00   7.7637474e+03
 1.6107399e+00   7.7599589e+03
 1.6154200e+00   7.7605048e+03
 1.6201000e+00   7.7648483e+03
 1.6247801e+00   7.7436957e+03
 1.6294600e+00   7.7557033e+03
 1.6341400e+00   7.7632173e+03
 1.6388201e+00   7.7709903e+03
 1.6435000e+00   7.7462858e+03
 1.6481800e+00   7.7596260e+03
 1.6528600e+00   7.7789721e+03
 1.6575400e+00   7.7602004e+03
 1.6622200e+00   7.7577119e+03
 1.6669000e+00   7.7514443e+03
 1.6715800e+00   7.7574177e+03
 1.6762600e+00   7.7788451e+03
 1.6809400e+00   7.7554251e+03
 1.6856200e+00   7.7613027e+03
 1.6903000e+00   7.7788359e+03
 1.6949800e+00   7.7813030e+03
 1.6996599e+00   7.7665947e+03
 1.7043400e+00   7.7561268e+03
 1.7090200e+00   7.7862887e+03
 1.7137001e+00   7.7797621e+03
 1.7183800e+00   7.7881752e+03
 1.7230600e+00   7.8164314e+03
 1.7277400e+00   7.7902431e+03
 1.7324200e+00   7.7860507e+03
 1.7371000e+00   7.7863200e+03
 1.7417800e+00   7.8117110e+03
 1.7464600e+00   7.7964238e+03
 1.7511400e+00   7.8438513e+03
 1.7558200e+00   7.8158268e+03
 1.7605000e+00   7.8445057e+03
 1.7651800e+00   7.8447371e+03
 1.7698600e+00   7.8493277e+03
 1.7745399e+00   7.8557337e+03
 1.7792200e+00   7.8681680e+03
 1.7839000e+00   7.8804680e+03
 1.7885799e+00   7.9270040e+03
 1.7932600e+00   7.8984995e+03
 1.7979400e+00   7.9267036e+03
 1.8026201e+00   7.9341281e+03
 1.8073000e+00   7.9224475e+03
 1.8119800e+00   7.9830519e+03
 1.8166600e+00   7.9996783e+03
 1.8213400e+00   7.9935448e+03
 1.8260200e+00   8.0214404e+03
 1.8307000e+00   8.0218944e+03
 1.8353800e+00   8.0330620e+03
 1.8400600e+00   8.0668508e+03
 1.8447400e+00   8.0772925e+03
 1.8494200e+00   8.0924639e+03
 1.8541000e+00   8.1209988e+03
 1.8587800e+00   8.1288088e+03
 1.8634599e+00   8.1883570e+03
 1.8681400e+00   8.1971159e+03
 1.8728200e+00   8.2021055e+03
 1.8775001e+00   8.2310018e+03
 1.8821800e+00   8.2373859e+03
 1.8868600e+00   8.2501718e+03
 1.8915401e+00   8.2927817e+03
 1.8962200e+00   8.3140916e+03
 1.9009000e+00   8.3240885e+03
 1.9055800e+00   8.3534643e+03
 1.9102600e+00   8.3841753e+03
 1.9149400e+00   8.3761153e+03
 1.9196200e+00   8.4250608e+03
 1.9243000e+00   8.4398352e+03
 1.9289800e+00   8.4727550e+03
 1.9336600e+00   8.4924799e+03
 1.9383399e+00   8.5263500e+03
 1.9430200e+00   8.5557791e+03
 1.9477000e+00   8.5931015e+03
 1.9523799e+00   8.5807792e+03
 1.9570600e+00   8.6271666e+03
 1.9617400e+00   8.6466495e+03
 1.9664201e+00   8.6811707e+03
 1.9711000e+00   8.6955276e+03
 1.9757800e+00   8.7265422e+03
 1.9804600e+00   8.7529401e+03
 1.9851400e+00   8.7974468e+03
 1.9898200e+00   8.8084781e+03
 1.9945000e+00   8.8118908e+03
 1.9991800e+00   8.8510885e+03
 2.0038600e+00   8.8837722e+03
 2.0085399e+00   8.9073415e+03
 2.0132201e+00   8.9471437e+03
 2.0179000e+00   8.9591155e+03
 2.0225799e+00   8.9982158e+03
 2.0272601e+00   9.0504207e+03
 2.0319400e+00   9.0470024e+03
 2.0366199e+00   9.0869760e+03
 2.0413001e+00   9.1353903e+03
 2.0459800e+00   9.1439911e+03
 2.0506599e+00   9.1783366e+03
 2.0553401e+00   9.2339262e+03
 2.0600200e+00   9.2647923e+03
 2.0646999e+00   9.3215100e+03
 2.0693800e+00   9.3673957e+03
 2.0740600e+00   9.4480965e+03
 2.0787399e+00   9.5306009e+03
 2.0834200e+00   9.6422134e+03
 2.0881000e+00   9.7368121e+03
 2.0927801e+00   9.9418646e+03
 2.0974600e+00   1.0170831e+04
 2.1021399e+00   1.0515475e+04
 2.1068201e+00   1.0937326e+04
 2.1115000e+00   1.1645377e+04
 2.1161799e+00   1.2553646e+04
 2.1208601e+00   1.3951249e+04
 2.1255400e+00   1.5819601e+04
 2.1302199e+00   1.8282625e+04
 2.1349001e+00   2.1038696e+04
 2.1395800e+00   2.3841574e+04
 2.1442599e+00   2.6344221e+04
 2.1489401e+00   2.8167639e+04
 2.1536200e+00   2.8958637e+04
 2.1582999e+00   2.8720023e+04
 2.1629801e+00   2.7776872e+04
 2.1676600e+00   2.6372411e+04
 2.1723399e+00   2.4706379e+04
 2.1770201e+00   2.3051237e+04
 2.1817000e+00   2.1461711e+04
 2.1863799e+00   2.0010395e+04
 2.1910601e+00   1.8590075e+04
 2.1957400e+00   1.7382867e+04
 2.2004199e+00   1.6190791e+04
 2.2051001e+00   1.5254253e+04
 2.2097800e+00   1.4456046e+04
 2.2144599e+00   1.3836060e+04
 2.2191401e+00   1.3343097e+04
 2.2238200e+00   1.2980226e+04
 2.2284999e+00   1.2683529e+04
 2.2331800e+00   1.2466382e+04
 2.2378600e+00   1.2261028e+04
 2.2425399e+00   1.2073676e+04
 2.2472200e+00   1.1837300e+04
 2.2519000e+00   1.1615114e+04
 2.2565801e+00   1.1395188e+04
 2.2612600e+00   1.1171451e+04
 2.2659400e+00   1.0982184e+04
 2.2706201e+00   1.0838316e+04
 2.2753000e+00   1.0718337e+04
 2.2799799e+00   1.0648180e+04
 2.2846601e+00   1.0594005e+04
 2.2893400e+00   1.0556183e+04
 2.2940199e+00   1.0548096e+04
 2.2987001e+00   1.0561708e+04
 2.3033800e+00   1.0556985e+04
 2.3080599e+00   1.0559834e+04
 2.3127401e+00   1.0573605e+04
 2.3174200e+00   1.0575699e+04
 2.3220999e+00   1.0612595e+04
 2.3267801e+00   1.0616033e+04
 2.3314600e+00   1.0639390e+04
 2.3361399e+00   1.0682243e+04
 2.3408201e+00   1.0692263e+04
 2.3455000e+00   1.0738416e+04
 2.3501799e+00   1.0741514e+04
 2.3548601e+00   1.0806428e+04
 2.3595400e+00   1.0823502e+04
 2.3642199e+00   1.0836126e+04
 2.3689001e+00   1.0877122e+04
 2.3735800e+00   1.0908362e+04
 2.3782599e+00   1.0931592e+04
 2.3829401e+00   1.0966731e+04
 2.3876200e+00   1.0998101e+04
 2.3922999e+00   1.1049402e+04
 2.3969800e+00   1.1075438e+04
 2.4016600e+00   1.1123333e+04
 2.4063399e+00   1.1145919e+04
 2.4110200e+00   1.1165323e+04
 2.4157000e+00   1.1198256e+04
 2.4203801e+00   1.1243107e+04
 2.4250600e+00   1.1275567e+04
 2.4297400e+00   1.1301787e+04
 2.4344201e+00   1.1380517e+04
 2.4391000e+00   1.1378839e+04
 2.4437799e+00   1.1444492e+04
 2.4484601e+00   1.1457142e+04
 2.4531400e+00   1.1506617e+04
 2.4578199e+00   1.1539237e+04
 2.4625001e+00   1.1569151e+04
 2.4671800e+00   1.1601848e+04
 2.4718599e+00   1.1644101e+04
 2.4765401e+00   1.1666496e+04
 2.4812200e+00   1.1720449e+04
 2.4858999e+00   1.1766031e+04
 2.4905801e+00   1.1802251e+04
 2.4952600e+00   1.1844623e+04
 2.4999399e+00   1.1863801e+04
 2.5046201e+00   1.1924589e+04
 2.5093000e+00   1.1939249e+04
 2.5139799e+00   1.2001295e+04
 2.5186601e+00   1.2034282e+04
 2.5233400e+00   1.2061221e+04
 2.5280199e+00   1.2089845e+04
 2.5327001e+00   1.2126831e+04
 2.5373800e+00   1.2183200e+04
 2.5420599e+00   1.2210173e+04
 2.5467401e+00   1.2225397e+04
 2.5514200e+00   1.2258644e+04
 2.5560999e+00   1.2304388e+04
 2.5607800e+00   1.2327542e+04
 2.5654600e+00   1.2361776e+04
 2.5701399e+00   1.2399942e+04
 2.5748200e+00   1.2419049e+04
 2.5795000e+00   1.2434250e+04
 2.5841801e+00   1.2496889e+04
 2.5888600e+00   1.2508682e+04
 2.5935400e+00   1.2531192e+04
 2.5982201e+00   1.2557134e+04
 2.6029000e+00   1.2579294e+04
 2.6075799e+00   1.2599116e+04
 2.6122601e+00   1.2624882e+04
 2.6169400e+00   1.2652677e+04
 2.6216199e+00   1.2668276e+04
 2.6263001e+00   1.2686391e+04
 2.6309800e+00   1.2716472e+04
 2.6356599e+00   1.2738778e+04
 2.6403401e+00   1.2762822e+04
 2.6450200e+00   1.2781333e+04
 2.6496999e+00   1.2783475e+04
 2.6543801e+00   1.2806137e+04
 2.6590600e+00   1.2826509e+04
 2.6637399e+00   1.2839826e+04
 2.6684201e+00   1.2857119e+04
 2.6731000e+00   1.2846451e+04
 2.6777799e+00   1.2896227e+04
 2.6824601e+00   1.2851876e+04
 2.6871400e+00   1.2870093e+04
 2.6918199e+00   1.2891745e+04
 2.6965001e+00   1.2883699e+04
 2.7011800e+00   1.2913542e+04
 2.7058599e+00   1.2916934e+04
 2.7105401e+00   1.2933288e+04
 2.7152200e+00   1.2954511e+04
 2.7198999e+00   1.2955313e+04
 2.7245800e+00   1.2947338e+04
 2.7292600e+00   1.2949291e+04
 2.7339399e+00   1.2959082e+04
 2.7386200e+00   1.2936766e+04
 2.7433000e+00   1.2947047e+04
 2.7479801e+00   1.2937654e+04
 2.7526600e+00   1.2926398e+04
 2.7573400e+00   1.2895668e+04
 2.7620201e+00   1.2913167e+04
 2.7667000e+00   1.2910707e+04
 2.7713799e+00   1.2900381e+04
 2.7760601e+00   1.2895076e+04
 2.7807400e+00   1.2899326e+04
 2.7854199e+00   1.2877358e+04
 2.7901001e+00   1.2899872e+04
 2.7947800e+00   1.2855740e+04
 2.7994599e+00   1.2859449e+04
 2.8041401e+00   1.2853016e+04
 2.8088200e+00   1.2857882e+04
 2.8134999e+00   1.2815833e+04
 2.8181801e+00   1.2820545e+04
 2.8228600e+00   1.2794056e+04
 2.8275399e+00   1.2788074e+04
 2.8322201e+00   1.2777463e+04
 2.8369000e+00   1.2772825e+04
 2.8415799e+00   1.2745505e+04
 2.8462601e+00   1.2732590e+04
 2.8509400e+00   1.2686476e+04
 2.8556199e+00   1.2707771e+04
 2.8603001e+00   1.2663190e+04
 2.8649800e+00   1.2648535e+04
 2.8696599e+00   1.2629888e+04
 2.8743401e+00   1.2620164e+04
 2.8790200e+00   1.2614449e+04
 2.8836999e+00   1.2575019e+04
 2.8883801e+00   1.2564719e+04
 2.8930600e+00   1.2551911e+04
 2.8977399e+00   1.2538408e+04
 2.9024200e+00   1.2528545e+04
 2.9071000e+00   1.2512603e+04
 2.9117801e+00   1.2485801e+04
 2.9164600e+00   1.2475803e+04
 2.9211400e+00   1.2431986e+04
 2.9258201e+00   1.2436085e+04
 2.9305000e+00   1.2410990e+04
 2.9351799e+00   1.2388505e+04
 2.9398601e+00   1.2383403e+04
 2.9445400e+00   1.2349412e+04
 2.9492199e+00   1.2339254e+04
 2.9539001e+00   1.2320093e+04
 2.9585800e+00   1.2295600e+04
 2.9632599e+00   1.2255904e+04
 2.9679401e+00   1.2231965e+04
 2.9726200e+00   1.2221547e+04
 2.9772999e+00   1.2197848e+04
 2.9819801e+00   1.2183415e+04
 2.9866600e+00   1.2150786e+04
 2.9913399e+00   1.2111959e+04
 2.9960201e+00   1.2100692e+04
 3.0007000e+00   1.2061432e+04
 3.0053799e+00   1.2041662e+04
 3.0100601e+00   1.2025047e+04
 3.0147400e+00   1.1995224e+04
 3.0194199e+00   1.1969013e+04
 3.0241001e+00   1.1957211e+04
 3.0287800e+00   1.1929928e+04
 3.0334599e+00   1.1897941e+04
 3.0381401e+00   1.1879273e+04
 3.0428200e+00   1.1849983e+04
 3.0474999e+00   1.1804440e+04
 3.0521801e+00   1.1784198e+04
 3.0568600e+00   1.1754312e+04
 3.0615399e+00   1.1728274e+04
 3.0662200e+00   1.1688349e+04
 3.0709000e+00   1.1675472e+04
 3.0755799e+00   1.1618629e+04
 3.0802600e+00   1.1616197e+04
 3.0849400e+00   1.1581580e+04
 3.0896201e+00   1.1567179e+04
 3.0943000e+00   1.1536499e+04
 3.0989799e+00   1.1523494e+04
 3.1036601e+00   1.1503519e+04
 3.1083400e+00   1.1487456e+04
 3.1130199e+00   1.1445606e+04
 3.1177001e+00   1.1442739e+04
 3.1223800e+00   1.1411286e+04
 3.1270599e+00   1.1401763e+04
 3.1317401e+00   1.1379784e+04
 3.1364200e+00   1.1334367e+04
 3.1410999e+00   1.1308001e+04
 3.1457801e+00   1.1295375e+04
 3.1504600e+00   1.1283825e+04
 3.1551399e+00   1.1268923e+04
 3.1598201e+00   1.1249362e+04
 3.1645000e+00   1.1225414e+04
 3.1691799e+00   1.1212251e+04
 3.1738601e+00   1.1198816e+04
 3.1785400e+00   1.1174052e+04
 3.1832199e+00   1.1178516e+04
 3.1879001e+00   1.1148447e+04
 3.1925800e+00   1.1129364e+04
 3.1972599e+00   1.1133549e+04
 3.2019401e+00   1.1094273e+04
 3.2066200e+00   1.1098682e+04
 3.2112999e+00   1.1096834e+04
 3.2159801e+00   1.1047643e+04
 3.2206600e+00   1.1055393e+04
 3.2253399e+00   1.1026936e+04
 3.2300200e+00   1.1012066e+04
 3.2347000e+00   1.1009832e+04
 3.2393799e+00   1.0988261e+04
 3.2440600e+00   1.0960136e+04
 3.2487400e+00   1.0940983e+04
 3.2534201e+00   1.0933962e+04
 3.2581000e+00   1.0932081e+04
 3.2627800e+00   1.0913066e+04
 3.2674601e+00   1.0906637e+04
 3.2721400e+00   1.0914639e+04
 3.2768199e+00   1.0908854e+04
 3.2815001e+00   1.0855750e+04
 3.2861800e+00   1.0892751e+04
 3.2908599e+00   1.0860461e+04
 3.2955401e+00   1.0865353e+04
 3.3002200e+00   1.0850187e+04
 3.3048999e+00   1.0829560e+04
 3.3095801e+00   1.0847816e+04
 3.3142600e+00   1.0844519e+04
 3.3189399e+00   1.0834314e+04
 3.3236201e+00   1.0835454e+04
 3.3283000e+00   1.0834093e+04
 3.3329799e+00   1.0803179e+04
 3.3376601e+00   1.0834057e+04
 3.3423400e+00   1.0796427e+04
 3.3470199e+00   1.0808275e+04
 3.3517001e+00   1.0813471e+04
 3.3563800e+00   1.0785872e+04
 3.3610599e+00   1.0801348e+04
 3.3657401e+00   1.0794645e+04
 3.3704200e+00   1.0785734e+04
 3.3750999e+00   1.0801853e+04
 3.3797801e+00   1.0779687e+04
 3.3844600e+00   1.0770574e+04
 3.3891399e+00   1.0801941e+04
 3.3938200e+00   1.0774598e+04
 3.3985000e+00   1.0813593e+04
 3.4031799e+00   1.0784370e+04
 3.4078600e+00   1.0772889e+04
 3.4125400e+00   1.0819879e+04
 3.4172201e+00   1.0807897e+04
 3.4219000e+00   1.0790850e+04
 3.4265800e+00   1.0838042e+04
 3.4312601e+00   1.0789594e+04
 3.4359400e+00   1.0805486e+04
 3.4406199e+00   1.0814229e+04
 3.4453001e+00   1.0805763e+04
 3.4499800e+00   1.0814853e+04
 3.4546599e+00   1.0829893e+04
 3.4593401e+00   1.0799178e+04
 3.4640200e+00   1.0826614e+04
 3.4686999e+00   1.0809603e+04
 3.4733801e+00   1.0808766e+04
 3.4780600e+00   1.0820476e+04
 3.4827399e+00   1.0801745e+04
 3.4874201e+00   1.0827897e+04
 3.4921000e+00   1.0832714e+04
 3.4967799e+00   1.0802637e+04
 3.5014601e+00   1.0822071e+04
 3.5061400e+00   1.0808211e+04
 3.5108199e+00   1.0767446e+04
 3.5155001e+00   1.0826870e+04
 3.5201800e+00   1.0786976e+04
 3.5248599e+00   1.0815724e+04
 3.5295401e+00   1.0810528e+04
 3.5342200e+00   1.0787476e+04
 3.5388999e+00   1.0793982e+04
 3.5435801e+00   1.0831338e+04
 3.5482600e+00   1.0751564e+04
 3.5529399e+00   1.0853269e+04
 3.5576200e+00   1.0795438e+04
 3.5623000e+00   1.0777068e+04
 3.5669799e+00   1.0822652e+04
 3.5716600e+00   1.0799495e+04
 3.5763400e+00   1.0801914e+04
 3.5810201e+00   1.0850673e+04
 3.5857000e+00   1.0780855e+04
 3.5903800e+00   1.0814591e+04
 3.5950601e+00   1.0829497e+04
 3.5997400e+00   1.0766389e+04
 3.6044199e+00   1.0814463e+04
 3.6091001e+00   1.0789821e+04
 3.6137800e+00   1.0763206e+04
 3.6184599e+00   1.0838019e+04
 3.6231401e+00   1.0775515e+04
 3.6278200e+00   1.0758489e+04
 3.6324999e+00   1.0821465e+04
 3.6371801e+00   1.0722158e+04
 3.6418600e+00   1.0806972e+04
 3.6465399e+00   1.0778948e+04
 3.6512201e+00   1.0709880e+04
 3.6559000e+00   1.0806258e+04
 3.6605799e+00   1.0705202e+04
 3.6652601e+00   1.0708424e+04
 3.6699400e+00   1.0761970e+04
 3.6746199e+00   1.0635209e+04
 3.6793001e+00   1.0634553e+04
 3.6839800e+00   1.0692533e+04
 3.6886599e+00   1.0572384e+04
 3.6933401e+00   1.0684816e+04
 3.6980200e+00   1.0579198e+04
 3.7026999e+00   1.0536399e+04
 3.7073801e+00   1.0624039e+04
 3.7120600e+00   1.0546241e+04
 3.7167399e+00   1.0485828e+04
 3.7214200e+00   1.0533311e+04
 3.7261000e+00   1.0348143e+04
 3.7307799e+00   1.0409417e+04
 3.7354600e+00   1.0375649e+04
 3.7401400e+00   1.0251200e+04
 3.7448201e+00   1.0305667e+04
 3.7495000e+00   1.0250197e+04
 3.7541800e+00   1.0139687e+04
 3.7588601e+00   1.0193093e+04
 3.7635400e+00   1.0072169e+04
 3.7682199e+00   1.0041876e+04
 3.7729001e+00   1.0011265e+04
 3.7775800e+00   9.9177556e+03
 3.7822599e+00   9.8763303e+03
 3.7869401e+00   9.9194567e+03
 3.7916200e+00   9.7189346e+03
 3.7962999e+00   9.9092925e+03
 3.8009801e+00   9.7624752e+03
 3.8056600e+00   9.7087248e+03
 3.8103399e+00   9.7802576e+03
 3.8150201e+00   9.6491894e+03
 3.8197000e+00   9.6726939e+03
 3.8243799e+00   9.7242611e+03
 3.8290601e+00   9.6025960e+03
 3.8337400e+00   9.6491719e+03
 3.8384199e+00   9.6303948e+03
 3.8431001e+00   9.4665336e+03
 3.8477800e+00   9.6195832e+03
 3.8524599e+00   9.5164159e+03
 3.8571401e+00   9.4679341e+03
 3.8618200e+00   9.4391396e+03
 3.8664999e+00   9.3797336e+03
 3.8711801e+00   9.4214578e+03
 3.8758600e+00   9.3721652e+03
 3.8805399e+00   9.2594142e+03
 3.8852201e+00   9.3870282e+03
 3.8899000e+00   9.2435397e+03
 3.8945799e+00   9.1814112e+03
 3.8992600e+00   9.2280750e+03
 3.9039400e+00   9.1698081e+03
 3.9086201e+00   9.0974163e+03
 3.9133000e+00   9.1418930e+03
 3.9179800e+00   9.0117945e+03
 3.9226601e+00   9.0746103e+03
 3.9273400e+00   9.0396886e+03
 3.9320199e+00   8.9399677e+03
 3.9367001e+00   8.9676302e+03
 3.9413800e+00   8.9574815e+03
 3.9460599e+00   8.8906434e+03
 3.9507401e+00   8.9355840e+03
 3.9554200e+00   8.8775832e+03
 3.9600999e+00   8.8215199e+03
 3.9647801e+00   8.8189462e+03
 3.9694600e+00   8.7836665e+03
 3.9741399e+00   8.7734554e+03
 3.9788201e+00   8.8014491e+03
 3.9835000e+00   8.7158259e+03
 3.9881799e+00   8.7008829e+03
 3.9928601e+00   8.6503860e+03
 3.9975400e+00   8.6257898e+03
 4.0022202e+00   8.6995370e+03
 4.0068998e+00   8.5636126e+03
 4.0115800e+00   8.6289461e+03
 4.0162601e+00   8.5753200e+03
 4.0209398e+00   8.4956419e+03
 4.0256200e+00   8.5159281e+03
 4.0303001e+00   8.5206250e+03
 4.0349798e+00   8.4527756e+03
 4.0396600e+00   8.5248374e+03
 4.0443401e+00   8.3744950e+03
 4.0490198e+00   8.4203894e+03
 4.0537000e+00   8.4242226e+03
 4.0583801e+00   8.3582748e+03
 4.0630598e+00   8.3768045e+03
 4.0677400e+00   8.4031496e+03
 4.0724201e+00   8.2865436e+03
 4.0770998e+00   8.3437953e+03
 4.0817800e+00   8.2922323e+03
 4.0864601e+00   8.2683591e+03
 4.0911398e+00   8.3426004e+03
 4.0958200e+00   8.1903995e+03
 4.1005001e+00   8.2317757e+03
 4.1051798e+00   8.2258605e+03
 4.1098599e+00   8.2061485e+03
 4.1145401e+00   8.2191975e+03
 4.1192198e+00   8.2061766e+03
 4.1238999e+00   8.1089956e+03
 4.1285801e+00   8.2247834e+03
 4.1332598e+00   8.0930453e+03
 4.1379399e+00   8.1516436e+03
 4.1426201e+00   8.1165576e+03
 4.1472998e+00   8.0569142e+03
 4.1519799e+00   8.0844365e+03
 4.1566601e+00   8.0805474e+03
 4.1613402e+00   7.9421400e+03
 4.1660199e+00   8.1069528e+03
 4.1707001e+00   7.9779000e+03
 4.1753802e+00   7.9844055e+03
 4.1800599e+00   8.0106203e+03
 4.1847401e+00   7.9479069e+03
 4.1894202e+00   8.0083812e+03
 4.1940999e+00   8.0023278e+03
 4.1987801e+00   7.9247384e+03
 4.2034602e+00   8.0119783e+03
 4.2081399e+00   7.9565131e+03
 4.2128201e+00   7.9438882e+03
 4.2175002e+00   8.0808543e+03
 4.2221799e+00   7.9593377e+03
 4.2268600e+00   7.9680670e+03
 4.2315402e+00   8.0295740e+03
 4.2362199e+00   7.9349733e+03
 4.2409000e+00   8.0318907e+03
 4.2455802e+00   8.0658633e+03
 4.2502599e+00   8.0447198e+03
 4.2549400e+00   8.1918032e+03
 4.2596202e+00   8.2092160e+03
 4.2642999e+00   8.3453202e+03
 4.2689800e+00   8.5144994e+03
 4.2736602e+00   8.7766459e+03
 4.2783399e+00   8.9822330e+03
 4.2830200e+00   9.2081562e+03
 4.2877002e+00   9.3416538e+03
 4.2923799e+00   9.5768153e+03
 4.2970600e+00   9.6662273e+03
 4.3017402e+00   9.6426804e+03
 4.3064198e+00   9.6859358e+03
 4.3111000e+00   9.5742139e+03
 4.3157802e+00   9.5066160e+03
 4.3204598e+00   9.3824201e+03
 4.3251400e+00   9.1665802e+03
 4.3298202e+00   9.1244353e+03
 4.3344998e+00   8.9579134e+03
 4.3391800e+00   8.9006653e+03
 4.3438601e+00   8.8484592e+03
 4.3485398e+00   8.7656237e+03
 4.3532200e+00   8.6810074e+03
 4.3579001e+00   8.6792681e+03
 4.3625798e+00   8.5295607e+03
 4.3672600e+00   8.4937689e+03
 4.3719401e+00   8.3889719e+03
 4.3766198e+00   8.3175760e+03
 4.3813000e+00   8.2674317e+03
 4.3859801e+00   8.1746919e+03
 4.3906598e+00   8.0857382e+03
 4.3953400e+00   8.0638571e+03
 4.4000201e+00   7.9624780e+03
 4.4046998e+00   7.9507324e+03
 4.4093800e+00   7.8708691e+03
 4.4140601e+00   7.8314846e+03
 4.4187398e+00   7.8214213e+03
 4.4234200e+00   7.7632817e+03
 4.4281001e+00   7.6743864e+03
 4.4327798e+00   7.7781986e+03
 4.4374599e+00   7.6698582e+03
 4.4421401e+00   7.6823895e+03
 4.4468198e+00   7.6637866e+03
 4.4514999e+00   7.5922324e+03
 4.4561801e+00   7.5979618e+03
 4.4608598e+00   7.5877565e+03
 4.4655399e+00   7.5378246e+03
 4.4702201e+00   7.5678740e+03
 4.4748998e+00   7.5316315e+03
 4.4795799e+00   7.4859529e+03
 4.4842601e+00   7.5394175e+03
 4.4889398e+00   7.4583499e+03
 4.4936199e+00   7.4536790e+03
 4.4983001e+00   7.4095731e+03
 4.5029802e+00   7.3573157e+03
 4.5076599e+00   7.3382950e+03
 4.5123401e+00   7.3183920e+03
 4.5170202e+00   7.2278615e+03
 4.5216999e+00   7.2468894e+03
 4.5263801e+00   7.1646742e+03
 4.5310602e+00   7.1728654e+03
 4.5357399e+00   7.1511739e+03
 4.5404201e+00   7.1117631e+03
 4.5451002e+00   7.1067031e+03
 4.5497799e+00   7.0883806e+03
 4.5544600e+00   7.0550023e+03
 4.5591402e+00   7.0694766e+03
 4.5638199e+00   7.0387408e+03
 4.5685000e+00   6.9987362e+03
 4.5731802e+00   7.0134773e+03
 4.5778599e+00   6.9914802e+03
 4.5825400e+00   6.9898435e+03
 4.5872202e+00   6.9679417e+03
 4.5918999e+00   6.9440675e+03
 4.5965800e+00   6.9212961e+03
 4.6012602e+00   6.8928053e+03
 4.6059399e+00   6.8906904e+03
 4.6106200e+00   6.8753188e+03
 4.6153002e+00   6.8663097e+03
 4.6199799e+00   6.8316226e+03
 4.6246600e+00   6.8280535e+03
 4.6293402e+00   6.8132520e+03
 4.6340199e+00   6.7938551e+03
 4.6387000e+00   6.8007689e+03
 4.6433802e+00   6.7697096e+03
 4.6480598e+00   6.7633751e+03
 4.6527400e+00   6.7440154e+03
 4.6574202e+00   6.7304049e+03
 4.6620998e+00   6.7464573e+03
 4.6667800e+00   6.7343974e+03
 4.6714602e+00   6.7212205e+03
 4.6761398e+00   6.6925435e+03
 4.6808200e+00   6.6796294e+03
 4.6855001e+00   6.6912042e+03
 4.6901798e+00   6.6787233e+03
 4.6948600e+00   6.6762131e+03
 4.6995401e+00   6.6611762e+03
 4.7042198e+00   6.6845611e+03
 4.7089000e+00   6.6797570e+03
 4.7135801e+00   6.7167500e+03
 4.7182598e+00   6.7248290e+03
 4.7229400e+00   6.7911062e+03
 4.7276201e+00   6.7857543e+03
 4.7322998e+00   6.8440007e+03
 4.7369800e+00   6.8913072e+03
 4.7416601e+00   6.9265250e+03
 4.7463398e+00   6.9452107e+03
 4.7510200e+00   7.0048394e+03
 4.7557001e+00   7.0503397e+03
 4.7603798e+00   7.1052984e+03
 4.7650599e+00   7.1710460e+03
 4.7697401e+00   7.2444814e+03
 4.7744198e+00   7.3611487e+03
 4.7790999e+00   7.4851870e+03
 4.7837801e+00   7.6113437e+03
 4.7884598e+00   7.8058843e+03
 4.7931399e+00   7.9754804e+03
 4.7978201e+00   8.1715029e+03
 4.8024998e+00   8.4023915e+03
 4.8071799e+00   8.6199708e+03
 4.8118601e+00   8.8094921e+03
 4.8165398e+00   8.9847745e+03
 4.8212199e+00   9.1874783e+03
 4.8259001e+00   9.3178092e+03
 4.8305802e+00   9.4350715e+03
 4.8352599e+00   9.4893885e+03
 4.8399401e+00   9.4853852e+03
 4.8446202e+00   9.3364403e+03
 4.8492999e+00   9.1755375e+03
 4.8539801e+00   8.9223405e+03
 4.8586602e+00   8.6440215e+03
 4.8633399e+00   8.3529314e+03
 4.8680201e+00   8.0811405e+03
 4.8727002e+00   7.8266993e+03
 4.8773799e+00   7.6354164e+03
 4.8820601e+00   7.5107122e+03
 4.8867402e+00   7.4025430e+03
 4.8914199e+00   7.3852190e+03
 4.8961000e+00   7.3832681e+03
 4.9007802e+00   7.4123196e+03
 4.9054599e+00   7.4913497e+03
 4.9101400e+00   7.5574640e+03
 4.9148202e+00   7.6263083e+03
 4.9194999e+00   7.7061291e+03
 4.9241800e+00   7.7894815e+03
 4.9288602e+00   7.8879791e+03
 4.9335399e+00   7.9570407e+03
 4.9382200e+00   8.0696764e+03
 4.9429002e+00   8.1618031e+03
 4.9475799e+00   8.3275896e+03
 4.9522600e+00   8.4607644e+03
 4.9569402e+00   8.6472357e+03
 4.9616199e+00   8.8424359e+03
 4.9663000e+00   9.0602052e+03
 4.9709802e+00   9.2715640e+03
 4.9756598e+00   9.4837579e+03
 4.9803400e+00   9.6742337e+03
 4.9850202e+00   9.7986191e+03
 4.9896998e+00   9.8915980e+03
 4.9943800e+00   9.9477888e+03
 4.9990602e+00   9.9034210e+03
 5.0037398e+00   9.7807736e+03
 5.0084200e+00   9.5905338e+03
 5.0131001e+00   9.3361489e+03
 5.0177798e+00   9.0478748e+03
 5.0224600e+00   8.7321306e+03
 5.0271401e+00   8.4117473e+03
 5.0318198e+00   8.1168242e+03
 5.0365000e+00   7.8589698e+03
 5.0411801e+00   7.5917819e+03
 5.0458598e+00   7.3953750e+03
 5.0505400e+00   7.2118175e+03
 5.0552201e+00   7.0810521e+03
 5.0598998e+00   6.9666222e+03
 5.0645800e+00   6.9100849e+03
 5.0692601e+00   6.8722962e+03
 5.0739398e+00   6.8643305e+03
 5.0786200e+00   6.9162077e+03
 5.0833001e+00   7.0297642e+03
 5.0879798e+00   7.0957351e+03
 5.0926600e+00   7.2296855e+03
 5.0973401e+00   7.3231736e+03
 5.1020198e+00   7.7391083e+03
 5.1066999e+00   8.0851699e+03
 5.1113801e+00   8.0518601e+03
 5.1160598e+00   7.9248384e+03
 5.1207399e+00   8.1728136e+03
 5.1254201e+00   8.7826098e+03
 5.1300998e+00   1.0222832e+04
 5.1347799e+00   1.1363439e+04
 5.1394601e+00   1.2887456e+04
 5.1441398e+00   1.3174721e+04
 5.1488199e+00   1.3364350e+04
 5.1535001e+00   1.2083831e+04
 5.1581802e+00   1.1205758e+04
 5.1628599e+00   9.7892131e+03
 5.1675401e+00   8.7596066e+03
 5.1722202e+00   7.8360194e+03
 5.1768999e+00   7.2212308e+03
 5.1815801e+00   6.7829963e+03
 5.1862602e+00   6.7302490e+03
 5.1909399e+00   6.8242671e+03
 5.1956201e+00   6.7174595e+03
 5.2003002e+00   6.6087846e+03
 5.2049799e+00   6.4385519e+03
 5.2096601e+00   6.3892913e+03
 5.2143402e+00   6.3562069e+03
 5.2190199e+00   6.2930231e+03
 5.2237000e+00   6.2516102e+03
 5.2283802e+00   6.1690688e+03
 5.2330599e+00   6.1448879e+03
 5.2377400e+00   6.1161289e+03
 5.2424202e+00   6.0823079e+03
 5.2470999e+00   6.0690668e+03
 5.2517800e+00   6.0369269e+03
 5.2564602e+00   6.0099745e+03
 5.2611399e+00   6.0072590e+03
 5.2658200e+00   5.9734185e+03
 5.2705002e+00   5.9801481e+03
 5.2751799e+00   5.9609207e+03
 5.2798600e+00   5.9556022e+03
 5.2845402e+00   5.9352979e+03
 5.2892199e+00   5.9319492e+03
 5.2939000e+00   5.9309172e+03
 5.2985802e+00   5.9317142e+03
 5.3032598e+00   5.9061752e+03
 5.3079400e+00   5.9292975e+03
 5.3126202e+00   5.9005247e+03
 5.3172998e+00   5.9068495e+03
 5.3219800e+00   5.9100851e+03
 5.3266602e+00   5.8913740e+03
 5.3313398e+00   5.8834291e+03
 5.3360200e+00   5.8764271e+03
 5.3407001e+00   5.8657243e+03
 5.3453798e+00   5.8556675e+03
 5.3500600e+00   5.8646852e+03
 5.3547401e+00   5.8631168e+03
 5.3594198e+00   5.8640323e+03
 5.3641000e+00   5.8517048e+03
 5.3687801e+00   5.8589992e+03
 5.3734598e+00   5.8537182e+03
 5.3781400e+00   5.8560843e+03
 5.3828201e+00   5.8525267e+03
 5.3874998e+00   5.8552412e+03
 5.3921800e+00   5.8588997e+03
 5.3968601e+00   5.8761734e+03
 5.4015398e+00   5.8626480e+03
 5.4062200e+00   5.8891493e+03
 5.4109001e+00   5.8797190e+03
 5.4155798e+00   5.8778956e+03
 5.4202600e+00   5.9018160e+03
 5.4249401e+00   5.9054734e+03
 5.4296198e+00   5.9218982e+03
 5.4342999e+00   5.9455830e+03
 5.4389801e+00   5.9440288e+03
 5.4436598e+00   5.9559705e+03
 5.4483399e+00   5.9639483e+03
 5.4530201e+00   5.9923611e+03
 5.4576998e+00   6.0100932e+03
 5.4623799e+00   6.0415821e+03
 5.4670601e+00   6.0599119e+03
 5.4717398e+00   6.1152195e+03
 5.4764199e+00   6.1510036e+03
 5.4811001e+00   6.2062946e+03
 5.4857798e+00   6.2756913e+03
 5.4904599e+00   6.3427622e+03
 5.4951401e+00   6.4299915e+03
 5.4998202e+00   6.5235219e+03
 5.5044999e+00   6.6540959e+03
 5.5091801e+00   6.8345629e+03
 5.5138602e+00   7.0171298e+03
 5.5185399e+00   7.2423594e+03
 5.5232201e+00   7.5278193e+03
 5.5279002e+00   7.8332825e+03
 5.5325799e+00   8.2585251e+03
 5.5372601e+00   8.6495309e+03
 5.5419402e+00   9.1350105e+03
 5.5466199e+00   9.5484132e+03
 5.5513000e+00   9.9637770e+03
 5.5559802e+00   1.0323719e+04
 5.5606599e+00   1.0568917e+04
 5.5653400e+00   1.0685388e+04
 5.5700202e+00   1.0738916e+04
 5.5746999e+00   1.0673985e+04
 5.5793800e+00   1.0519335e+04
 5.5840602e+00   1.0315076e+04
 5.5887399e+00   1.0050783e+04
 5.5934200e+00   9.7618188e+03
 5.5981002e+00   9.4572231e+03
 5.6027799e+00   9.1415085e+03
 5.6074600e+00   8.8567911e+03
 5.6121402e+00   8.5773957e+03
 5.6168199e+00   8.3218171e+03
 5.6215000e+00   8.0927133e+03
 5.6261802e+00   7.8488692e+03
 5.6308599e+00   7.6510177e+03
 5.6355400e+00   7.4803928e+03
 5.6402202e+00   7.3066179e+03
 5.6448998e+00   7.1710624e+03
 5.6495800e+00   7.0362472e+03
 5.6542602e+00   6.9099808e+03
 5.6589398e+00   6.8050262e+03
 5.6636200e+00   6.7041767e+03
 5.6683002e+00   6.6281035e+03
 5.6729798e+00   6.5379736e+03
 5.6776600e+00   6.4595427e+03
 5.6823401e+00   6.3861018e+03
 5.6870198e+00   6.3525553e+03
 5.6917000e+00   6.2769178e+03
 5.6963801e+00   6.2554430e+03
 5.7010598e+00   6.2076821e+03
 5.7057400e+00   6.1843255e+03
 5.7104201e+00   6.1697848e+03
 5.7150998e+00   6.1391896e+03
 5.7197800e+00   6.1193209e+03
 5.7244601e+00   6.1279288e+03
 5.7291398e+00   6.1182227e+03
 5.7338200e+00   6.1097262e+03
 5.7385001e+00   6.1145817e+03
 5.7431798e+00   6.1014747e+03
 5.7478600e+00   6.1224120e+03
 5.7525401e+00   6.1237576e+03
 5.7572198e+00   6.1536067e+03
 5.7618999e+00   6.1712350e+03
 5.7665801e+00   6.1466928e+03
 5.7712598e+00   6.1455777e+03
 5.7759399e+00   6.1553277e+03
 5.7806201e+00   6.1333412e+03
 5.7852998e+00   6.1291420e+03
 5.7899799e+00   6.1155318e+03
 5.7946601e+00   6.1100982e+03
 5.7993398e+00   6.0999425e+03
 5.8040199e+00   6.1052829e+03
 5.8087001e+00   6.1032276e+03
 5.8133798e+00   6.1093941e+03
 5.8180599e+00   6.0977287e+03
 5.8227401e+00   6.1270293e+03
 5.8274202e+00   6.1366393e+03
 5.8320999e+00   6.1396997e+03
 5.8367801e+00   6.1666952e+03
 5.8414602e+00   6.1927028e+03
 5.8461399e+00   6.2131910e+03
 5.8508201e+00   6.2448230e+03
 5.8555002e+00   6.2714779e+03
 5.8601799e+00   6.3263537e+03
 5.8648601e+00   6.3872627e+03
 5.8695402e+00   6.4220045e+03
 5.8742199e+00   6.4911388e+03
 5.8789001e+00   6.5586217e+03
 5.8835802e+00   6.6787515e+03
 5.8882599e+00   6.7636068e+03
 5.8929400e+00   6.8691530e+03
 5.8976202e+00   7.0052898e+03
 5.9022999e+00   7.1440105e+03
 5.9069800e+00   7.3618405e+03
 5.9116602e+00   7.7018339e+03
 5.9163399e+00   8.0133825e+03
 5.9210200e+00   8.3672197e+03
 5.9257002e+00   8.5071337e+03
 5.9303799e+00   8.9227418e+03
 5.9350600e+00   9.5542687e+03
 5.9397402e+00   9.9677602e+03
 5.9444199e+00   1.0192218e+04
 5.9491000e+00   1.0217816e+04
 5.9537802e+00   1.0124430e+04
 5.9584599e+00   9.8322087e+03
 5.9631400e+00   9.7836389e+03
 5.9678202e+00   9.7796500e+03
 5.9724998e+00   9.7095591e+03
 5.9771800e+00   9.5736463e+03
 5.9818602e+00   9.4311520e+03
 5.9865398e+00   9.3059097e+03
 5.9912200e+00   9.1733922e+03
 5.9959002e+00   8.9965001e+03
 6.0005798e+00   8.8186028e+03
 6.0052600e+00   8.5780012e+03
 6.0099401e+00   8.3762910e+03
 6.0146198e+00   8.1318118e+03
 6.0193000e+00   7.9042855e+03
 6.0239801e+00   7.7224514e+03
 6.0286598e+00   7.4996087e+03
 6.0333400e+00   7.3068726e+03
 6.0380201e+00   7.1653151e+03
 6.0426998e+00   6.9934931e+03
 6.0473800e+00   6.8559893e+03
 6.0520601e+00   6.7552076e+03
 6.0567398e+00   6.6021369e+03
 6.0614200e+00   6.5464605e+03
 6.0661001e+00   6.4505161e+03
 6.0707798e+00   6.3710178e+03
 6.0754600e+00   6.3312796e+03
 6.0801401e+00   6.2718031e+03
 6.0848198e+00   6.2162668e+03
 6.0895000e+00   6.1948403e+03
 6.0941801e+00   6.1277141e+03
 6.0988598e+00   6.1216376e+03
 6.1035399e+00   6.0981117e+03
 6.1082201e+00   6.0489043e+03
 6.1128998e+00   6.0530092e+03
 6.1175799e+00   6.0177002e+03
 6.1222601e+00   6.0055237e+03
 6.1269398e+00   5.9950152e+03
 6.1316199e+00   5.9863396e+03
 6.1363001e+00   5.9858088e+03
 6.1409798e+00   5.9615063e+03
 6.1456599e+00   5.9612526e+03
 6.1503401e+00   5.9617774e+03
 6.1550202e+00   5.9520868e+03
 6.1596999e+00   5.9574371e+03
 6.1643801e+00   5.9516151e+03
 6.1690602e+00   5.9389914e+03
 6.1737399e+00   5.9239772e+03
 6.1784201e+00   5.9434636e+03
 6.1831002e+00   5.9185100e+03
 6.1877799e+00   5.9345999e+03
 6.1924601e+00   5.9222815e+03
 6.1971402e+00   5.9253054e+03
 6.2018199e+00   5.9257163e+03
 6.2065001e+00   5.9454793e+03
 6.2111802e+00   5.9157663e+03
 6.2158599e+00   5.9441381e+03
 6.2205400e+00   5.9203301e+03
 6.2252202e+00   5.9388128e+03
 6.2298999e+00   5.9631409e+03
 6.2345800e+00   5.9185852e+03
 6.2392602e+00   5.9345327e+03
 6.2439399e+00   5.9320308e+03
 6.2486200e+00   5.9309206e+03
 6.2533002e+00   5.9282150e+03
 6.2579799e+00   5.9422797e+03
 6.2626600e+00   5.9481081e+03
 6.2673402e+00   5.9516501e+03
 6.2720199e+00   5.9311901e+03
 6.2767000e+00   5.9544627e+03
 6.2813802e+00   5.9395024e+03
 6.2860599e+00   5.9282104e+03
 6.2907400e+00   5.9513085e+03
 6.2954202e+00   5.9545615e+03
 6.3000998e+00   5.9368453e+03
 6.3047800e+00   5.9773285e+03
 6.3094602e+00   5.9555753e+03
 6.3141398e+00   5.9688239e+03
 6.3188200e+00   5.9680212e+03
 6.3235002e+00   5.9679959e+03
 6.3281798e+00   6.0041140e+03
 6.3328600e+00   5.9844062e+03
 6.3375401e+00   6.0102324e+03
 6.3422198e+00   6.0020083e+03
 6.3469000e+00   5.9889182e+03
 6.3515801e+00   5.9829158e+03
 6.3562598e+00   6.0215225e+03
 6.3609400e+00   5.9895498e+03
 6.3656201e+00   6.0268711e+03
 6.3702998e+00   5.9979510e+03
 6.3749800e+00   6.0080030e+03
 6.3796601e+00   5.9954245e+03
 6.3843398e+00   6.0101211e+03
 6.3890200e+00   6.0067940e+03
 6.3937001e+00   6.0320878e+03
 6.3983798e+00   5.9981142e+03
 6.4030600e+00   6.0144188e+03
 6.4077401e+00   6.0273919e+03
 6.4124198e+00   6.0304715e+03
 6.4171000e+00   6.0494113e+03
 6.4217801e+00   6.0226011e+03
 6.4264598e+00   6.0482084e+03
 6.4311399e+00   6.0511043e+03
 6.4358201e+00   6.0628840e+03
 6.4404998e+00   6.0679119e+03
 6.4451799e+00   6.1120203e+03
 6.4498601e+00   6.0614327e+03
 6.4545398e+00   6.0817118e+03
 6.4592199e+00   6.0598069e+03
 6.4639001e+00   6.0777105e+03
 6.4685798e+00   6.1085147e+03
 6.4732599e+00   6.0627416e+03
 6.4779401e+00   6.0900937e+03
 6.4826198e+00   6.0852206e+03
 6.4872999e+00   6.0846030e+03
 6.4919801e+00   6.1025242e+03
 6.4966602e+00   6.1391016e+03
 6.5013399e+00   6.0762850e+03
 6.5060201e+00   6.1465062e+03
 6.5107002e+00   6.0964044e+03
 6.5153799e+00   6.1245734e+03
 6.5200601e+00   6.1295230e+03
 6.5247402e+00   6.1334584e+03
 6.5294199e+00   6.1251481e+03
 6.5341001e+00   6.1431619e+03
 6.5387802e+00   6.1415876e+03
 6.5434599e+00   6.1724866e+03
 6.5481400e+00   6.1816827e+03
 6.5528202e+00   6.1869106e+03
 6.5574999e+00   6.1841454e+03
 6.5621800e+00   6.1763406e+03
 6.5668602e+00   6.2181882e+03
 6.5715399e+00   6.2443772e+03
 6.5762200e+00   6.2133102e+03
 6.5809002e+00   6.2464097e+03
 6.5855799e+00   6.2479093e+03
 6.5902600e+00   6.2293872e+03
 6.5949402e+00   6.2670320e+03
 6.5996199e+00   6.2310026e+03
 6.6043000e+00   6.2648486e+03
 6.6089802e+00   6.2746215e+03
 6.6136599e+00   6.2661050e+03
 6.6183400e+00   6.2911952e+03
 6.6230202e+00   6.2979283e+03
 6.6276999e+00   6.3058590e+03
 6.6323800e+00   6.3393024e+03
 6.6370602e+00   6.3333959e+03
 6.6417398e+00   6.3307519e+03
 6.6464200e+00   6.4003616e+03
 6.6511002e+00   6.3569441e+03
 6.6557798e+00   6.4067990e+03
 6.6604600e+00   6.4058124e+03
 6.6651402e+00   6.4349247e+03
 6.6698198e+00   6.4050817e+03
 6.6745000e+00   6.4402926e+03
 6.6791801e+00   6.4217699e+03
 6.6838598e+00   6.4865319e+03
 6.6885400e+00   6.4182917e+03
 6.6932201e+00   6.4938033e+03
 6.6978998e+00   6.4456195e+03
 6.7025800e+00   6.4858833e+03
 6.7072601e+00   6.5087258e+03
 6.7119398e+00   6.5068804e+03
 6.7166200e+00   6.5084146e+03
 6.7213001e+00   6.5178035e+03
 6.7259798e+00   6.5464302e+03
 6.7306600e+00   6.5329835e+03
 6.7353401e+00   6.6134030e+03
 6.7400198e+00   6.5715999e+03
 6.7447000e+00   6.6322625e+03
 6.7493801e+00   6.5890911e+03
 6.7540598e+00   6.6486425e+03
 6.7587399e+00   6.6379835e+03
 6.7634201e+00   6.6809871e+03
 6.7680998e+00   6.6754185e+03
 6.7727799e+00   6.7685313e+03
 6.7774601e+00   6.6807227e+03
 6.7821398e+00   6.7641904e+03
 6.7868199e+00   6.7442540e+03
 6.7915001e+00   6.7809854e+03
 6.7961798e+00   6.7894362e+03
 6.8008599e+00   6.7861919e+03
 6.8055401e+00   6.7979713e+03
 6.8102198e+00   6.8129455e+03
 6.8148999e+00   6.8135030e+03
 6.8195801e+00   6.8388015e+03
 6.8242602e+00   6.8485860e+03
 6.8289399e+00   6.8198131e+03
 6.8336201e+00   6.8953599e+03
 6.8383002e+00   6.8636996e+03
 6.8429799e+00   6.9144026e+03
 6.8476601e+00   6.9715941e+03
 6.8523402e+00   6.9552880e+03
 6.8570199e+00   6.9840195e+03
 6.8617001e+00   7.0625409e+03
 6.8663802e+00   7.0825908e+03
 6.8710599e+00   7.1490245e+03
 6.8757401e+00   7.1964744e+03
 6.8804202e+00   7.2532812e+03
 6.8850999e+00   7.3241983e+03
 6.8897800e+00   7.4308945e+03
 6.8944602e+00   7.4723919e+03
 6.8991399e+00   7.6051229e+03
 6.9038200e+00   7.6563528e+03
 6.9085002e+00   7.8053173e+03
 6.9131799e+00   7.8417740e+03
 6.9178600e+00   8.0062509e+03
 6.9225402e+00   8.0307083e+03
 6.9272199e+00   8.1808278e+03
 6.9319000e+00   8.1790148e+03
 6.9365802e+00   8.2918126e+03
 6.9412599e+00   8.2630327e+03
 6.9459400e+00   8.3446965e+03
 6.9506202e+00   8.3358022e+03
 6.9552999e+00   8.3624351e+03
 6.9599800e+00   8.3297134e+03
 6.9646602e+00   8.3108023e+03
 6.9693398e+00   8.2249536e+03
 6.9740200e+00   8.2653297e+03
 6.9787002e+00   8.1956671e+03
 6.9833798e+00   8.1494314e+03
 6.9880600e+00   8.1162868e+03
 6.9927402e+00   8.0784041e+03
 6.9974198e+00   8.0161738e+03
 7.0021000e+00   7.9390413e+03
 7.0067801e+00   7.9792751e+03
 7.0114598e+00   7.9385447e+03
 7.0161400e+00   7.8858858e+03
 7.0208201e+00   7.8204095e+03
 7.0254998e+00   7.8290559e+03
 7.0301800e+00   7.7316392e+03
 7.0348601e+00   7.7533849e+03
 7.0395398e+00   7.6720438e+03
 7.0442200e+00   7.6688942e+03
 7.0489001e+00   7.6078513e+03
 7.0535798e+00   7.5919322e+03
 7.0582600e+00   7.5532155e+03
 7.0629401e+00   7.5943947e+03
 7.0676198e+00   7.4850190e+03
 7.0723000e+00   7.4846080e+03
 7.0769801e+00   7.3819786e+03
 7.0816598e+00   7.3191596e+03
 7.0863400e+00   7.2695414e+03
 7.0910201e+00   7.1464173e+03
 7.0956998e+00   7.0937634e+03
 7.1003799e+00   7.0583566e+03
 7.1050601e+00   7.0112743e+03
 7.1097398e+00   6.9662867e+03
 7.1144199e+00   6.9430780e+03
 7.1191001e+00   6.8994852e+03
 7.1237798e+00   6.9291195e+03
 7.1284599e+00   6.8670646e+03
 7.1331401e+00   6.8698797e+03
 7.1378198e+00   6.8306338e+03
 7.1424999e+00   6.8345888e+03
 7.1471801e+00   6.7997969e+03
 7.1518602e+00   6.8138482e+03
 7.1565399e+00   6.7741460e+03
 7.1612201e+00   6.7928145e+03
 7.1659002e+00   6.7501066e+03
 7.1705799e+00   6.7567280e+03
 7.1752601e+00   6.7678243e+03
 7.1799402e+00   6.7428810e+03
 7.1846199e+00   6.7412807e+03
 7.1893001e+00   6.7266286e+03
 7.1939802e+00   6.7244438e+03
 7.1986599e+00   6.7228200e+03
 7.2033401e+00   6.7067861e+03
 7.2080202e+00   6.6883675e+03
 7.2126999e+00   6.7270903e+03
 7.2173800e+00   6.6778058e+03
 7.2220602e+00   6.6833548e+03
 7.2267399e+00   6.6794959e+03
 7.2314200e+00   6.6890491e+03
 7.2361002e+00   6.6821939e+03
 7.2407799e+00   6.7088516e+03
 7.2454600e+00   6.6840350e+03
 7.2501402e+00   6.7240534e+03
 7.2548199e+00   6.7150706e+03
 7.2595000e+00   6.7193337e+03
 7.2641802e+00   6.7469955e+03
 7.2688599e+00   6.7286960e+03
 7.2735400e+00   6.7377664e+03
 7.2782202e+00   6.7341788e+03
 7.2828999e+00   6.7355011e+03
 7.2875800e+00   6.7344202e+03
 7.2922602e+00   6.7230234e+03
 7.2969398e+00   6.7126666e+03
 7.3016200e+00   6.7414103e+03
 7.3063002e+00   6.7316180e+03
 7.3109798e+00   6.7441111e+03
 7.3156600e+00   6.7456164e+03
 7.3203402e+00   6.7737985e+03
 7.3250198e+00   6.7710706e+03
 7.3297000e+00   6.7850321e+03
 7.3343801e+00   6.7868337e+03
 7.3390598e+00   6.8174522e+03
 7.3437400e+00   6.8360220e+03
 7.3484201e+00   6.8498216e+03
 7.3530998e+00   6.8653737e+03
 7.3577800e+00   6.8703454e+03
 7.3624601e+00   6.9003777e+03
 7.3671398e+00   6.9050541e+03
 7.3718200e+00   6.9469535e+03
 7.3765001e+00   6.9367125e+03
 7.3811798e+00   6.9703628e+03
 7.3858600e+00   6.9689915e+03
 7.3905401e+00   6.9866893e+03
 7.3952198e+00   7.0110823e+03
 7.3999000e+00   7.0319798e+03
 7.4045801e+00   7.0519287e+03
 7.4092598e+00   7.0567484e+03
 7.4139400e+00   7.1003340e+03
 7.4186201e+00   7.1205336e+03
 7.4232998e+00   7.1518394e+03
 7.4279799e+00   7.1886078e+03
 7.4326601e+00   7.2277439e+03
 7.4373398e+00   7.2499294e+03
 7.4420199e+00   7.2849281e+03
 7.4467001e+00   7.3051899e+03
 7.4513798e+00   7.3424757e+03
 7.4560599e+00   7.3817400e+03
 7.4607401e+00   7.3838111e+03
 7.4654198e+00   7.4051752e+03
 7.4700999e+00   7.3998709e+03
 7.4747801e+00   7.4282816e+03
 7.4794598e+00   7.4113812e+03
 7.4841399e+00   7.4105381e+03
 7.4888201e+00   7.4048190e+03
 7.4935002e+00   7.3849602e+03
 7.4981799e+00   7.3679391e+03
 7.5028601e+00   7.3725645e+03
 7.5075402e+00   7.3537892e+03
 7.5122199e+00   7.3533212e+03
 7.5169001e+00   7.3272187e+03
 7.5215802e+00   7.3147025e+03
 7.5262599e+00   7.2951108e+03
 7.5309401e+00   7.2730376e+03
 7.5356202e+00   7.2672264e+03
 7.5402999e+00   7.2562409e+03
 7.5449800e+00   7.2574798e+03
 7.5496602e+00   7.2300614e+03
 7.5543399e+00   7.2304034e+03
 7.5590200e+00   7.2091366e+03
 7.5637002e+00   7.2202037e+03
 7.5683799e+00   7.1795006e+03
 7.5730600e+00   7.1822472e+03
 7.5777402e+00   7.1546970e+03
 7.5824199e+00   7.1510284e+03
 7.5871000e+00   7.1001154e+03
 7.5917802e+00   7.0933152e+03
 7.5964599e+00   7.0481387e+03
 7.6011400e+00   7.0118512e+03
 7.6058202e+00   6.9585674e+03
 7.6104999e+00   6.9099639e+03
 7.6151800e+00   6.8745403e+03
 7.6198602e+00   6.7683604e+03
 7.6245399e+00   6.7270253e+03
 7.6292200e+00   6.6480769e+03
 7.6339002e+00   6.6082786e+03
 7.6385798e+00   6.5438686e+03
 7.6432600e+00   6.5032287e+03
 7.6479402e+00   6.4271274e+03
 7.6526198e+00   6.4253951e+03
 7.6573000e+00   6.3683706e+03
 7.6619802e+00   6.3457702e+03
 7.6666598e+00   6.3068034e+03
 7.6713400e+00   6.2907477e+03
 7.6760201e+00   6.2513849e+03
 7.6806998e+00   6.2483206e+03
 7.6853800e+00   6.2102652e+03
 7.6900601e+00   6.1988827e+03
 7.6947398e+00   6.1794173e+03
 7.6994200e+00   6.1585993e+03
 7.7041001e+00   6.1495755e+03
 7.7087798e+00   6.1298408e+03
 7.7134600e+00   6.1185432e+03
 7.7181401e+00   6.1066822e+03
 7.7228198e+00   6.1170250e+03
 7.7275000e+00   6.0798813e+03
 7.7321801e+00   6.0846712e+03
 7.7368598e+00   6.0587520e+03
 7.7415400e+00   6.0485935e+03
 7.7462201e+00   6.0358217e+03
 7.7508998e+00   6.0160226e+03
 7.7555799e+00   5.9843087e+03
 7.7602601e+00   6.0156673e+03
 7.7649398e+00   5.9789394e+03
 7.7696199e+00   5.9707633e+03
 7.7743001e+00   5.9676390e+03
 7.7789798e+00   5.9312424e+03
 7.7836599e+00   5.9456229e+03
 7.7883401e+00   5.9172728e+03
 7.7930198e+00   5.9261017e+03
 7.7976999e+00   5.9114518e+03
 7.8023801e+00   5.8792269e+03
 7.8070598e+00   5.8675683e+03
 7.8117399e+00   5.8756134e+03
 7.8164201e+00   5.8261697e+03
 7.8211002e+00   5.8597974e+03
 7.8257799e+00   5.8272346e+03
 7.8304601e+00   5.8104184e+03
 7.8351402e+00   5.8371313e+03
 7.8398199e+00   5.8070635e+03
 7.8445001e+00   5.8023424e+03
 7.8491802e+00   5.8172938e+03
 7.8538599e+00   5.7935071e+03
 7.8585401e+00   5.7750745e+03
 7.8632202e+00   5.7951259e+03
 7.8678999e+00   5.7450059e+03
 7.8725801e+00   5.7972124e+03
 7.8772602e+00   5.7616894e+03
 7.8819399e+00   5.7600516e+03
 7.8866200e+00   5.7487822e+03
 7.8913002e+00   5.7578073e+03
 7.8959799e+00   5.7207857e+03
 7.9006600e+00   5.7321718e+03
 7.9053402e+00   5.6996357e+03
 7.9100199e+00   5.7301496e+03
 7.9147000e+00   5.6932290e+03
 7.9193802e+00   5.7023897e+03
 7.9240599e+00   5.6899177e+03
 7.9287400e+00   5.6879285e+03
 7.9334202e+00   5.6902471e+03
 7.9380999e+00   5.6769342e+03
 7.9427800e+00   5.6643226e+03
 7.9474602e+00   5.6844401e+03
 7.9521399e+00   5.6446851e+03
 7.9568200e+00   5.6290493e+03
 7.9615002e+00   5.6634971e+03
 7.9661798e+00   5.6229310e+03
 7.9708600e+00   5.6292142e+03
 7.9755402e+00   5.6317696e+03
 7.9802198e+00   5.6031812e+03
 7.9849000e+00   5.6074982e+03
 7.9895802e+00   5.6192395e+03
 7.9942598e+00   5.5875948e+03
 7.9989400e+00   5.6174463e+03
 8.0036201e+00   5.5699144e+03
 8.0082998e+00   5.5906324e+03
 8.0129805e+00   5.5767925e+03
 8.0176601e+00   5.5661385e+03
 8.0223398e+00   5.5766652e+03
 8.0270205e+00   5.5682223e+03
 8.0317001e+00   5.5674341e+03
 8.0363798e+00   5.5708684e+03
 8.0410604e+00   5.5549238e+03
 8.0457401e+00   5.5602802e+03
 8.0504198e+00   5.5667232e+03
 8.0551004e+00   5.5376116e+03
 8.0597801e+00   5.5802495e+03
 8.0644598e+00   5.5562913e+03
 8.0691404e+00   5.5822386e+03
 8.0738201e+00   5.6137614e+03
 8.0784998e+00   5.6259412e+03
 8.0831804e+00   5.6399921e+03
 8.0878601e+00   5.6828887e+03
 8.0925398e+00   5.6772957e+03
 8.0972204e+00   5.7302867e+03
 8.1019001e+00   5.7345703e+03
 8.1065798e+00   5.7518538e+03
 8.1112604e+00   5.7862837e+03
 8.1159401e+00   5.7847703e+03
 8.1206198e+00   5.8040490e+03
 8.1253004e+00   5.8115136e+03
 8.1299801e+00   5.7943554e+03
 8.1346598e+00   5.8117708e+03
 8.1393404e+00   5.8209486e+03
 8.1440201e+00   5.7965265e+03
 8.1486998e+00   5.8583123e+03
 8.1533804e+00   5.8207558e+03
 8.1580601e+00   5.8524985e+03
 8.1627398e+00   5.8526518e+03
 8.1674204e+00   5.8849924e+03
 8.1721001e+00   5.8974007e+03
 8.1767797e+00   5.9406471e+03
 8.1814604e+00   5.9307670e+03
 8.1861401e+00   6.0065629e+03
 8.1908197e+00   6.0383011e+03
 8.1955004e+00   6.0871117e+03
 8.2001801e+00   6.1693707e+03
 8.2048597e+00   6.2128589e+03
 8.2095404e+00   6.3017018e+03
 8.2142200e+00   6.3851700e+03
 8.2188997e+00   6.4740020e+03
 8.2235804e+00   6.5852700e+03
 8.2282600e+00   6.6646011e+03
 8.2329397e+00   6.7551086e+03
 8.2376204e+00   6.8639689e+03
 8.2423000e+00   6.9102753e+03
 8.2469797e+00   7.0339178e+03
 8.2516603e+00   7.0866797e+03
 8.2563400e+00   7.1697410e+03
 8.2610197e+00   7.2244107e+03
 8.2657003e+00   7.2950002e+03
 8.2703800e+00   7.3510137e+03
 8.2750597e+00   7.4147063e+03
 8.2797403e+00   7.4556053e+03
 8.2844200e+00   7.4856735e+03
 8.2890997e+00   7.5065990e+03
 8.2937803e+00   7.4769324e+03
 8.2984600e+00   7.4697644e+03
 8.3031397e+00   7.3785864e+03
 8.3078203e+00   7.3202126e+03
 8.3125000e+00   7.1790524e+03
 8.3171797e+00   7.0650317e+03
 8.3218603e+00   6.8664197e+03
 8.3265400e+00   6.7457642e+03
 8.3312197e+00   6.5879263e+03
 8.3359003e+00   6.4645372e+03
 8.3405800e+00   6.3000797e+03
 8.3452597e+00   6.2113563e+03
 8.3499403e+00   6.0715433e+03
 8.3546200e+00   6.0360232e+03
 8.3592997e+00   5.9564790e+03
 8.3639803e+00   5.9407257e+03
 8.3686600e+00   5.9445912e+03
 8.3733397e+00   6.0328513e+03
 8.3780203e+00   6.1772090e+03
 8.3827000e+00   6.3370100e+03
 8.3873796e+00   6.2778565e+03
 8.3920603e+00   6.4121625e+03
 8.3967400e+00   6.5764634e+03
 8.4014196e+00   6.9352833e+03
 8.4061003e+00   7.0383993e+03
 8.4107800e+00   7.0993100e+03
 8.4154596e+00   6.9313511e+03
 8.4201403e+00   6.8708995e+03
 8.4248199e+00   6.3668443e+03
 8.4294996e+00   6.3118493e+03
 8.4341803e+00   6.2522131e+03
 8.4388599e+00   6.1871712e+03
 8.4435396e+00   6.0520988e+03
 8.4482203e+00   5.9138325e+03
 8.4528999e+00   5.8809445e+03
 8.4575796e+00   5.8650038e+03
 8.4622602e+00   5.8383811e+03
 8.4669399e+00   5.8774760e+03
 8.4716196e+00   5.8974381e+03
 8.4763002e+00   5.9284135e+03
 8.4809799e+00   5.9477442e+03
 8.4856596e+00   5.9990735e+03
 8.4903402e+00   6.0180744e+03
 8.4950199e+00   6.0821952e+03
 8.4996996e+00   6.1304161e+03
 8.5043802e+00   6.1862849e+03
 8.5090599e+00   6.2230225e+03
 8.5137396e+00   6.3169324e+03
 8.5184202e+00   6.3411645e+03
 8.5230999e+00   6.4465569e+03
 8.5277796e+00   6.5021026e+03
 8.5324602e+00   6.5747306e+03
 8.5371399e+00   6.6422752e+03
 8.5418196e+00   6.7122810e+03
 8.5465002e+00   6.7706075e+03
 8.5511799e+00   6.8601328e+03
 8.5558596e+00   6.9220263e+03
 8.5605402e+00   6.9448517e+03
 8.5652199e+00   7.0173791e+03
 8.5698996e+00   7.0027210e+03
 8.5745802e+00   7.0529810e+03
 8.5792599e+00   7.0250986e+03
 8.5839396e+00   7.0585179e+03
 8.5886202e+00   7.0128949e+03
 8.5932999e+00   6.9968746e+03
 8.5979795e+00   6.9360732e+03
 8.6026602e+00   6.8703810e+03
 8.6073399e+00   6.8092958e+03
 8.6120195e+00   6.7399861e+03
 8.6167002e+00   6.6583298e+03
 8.6213799e+00   6.5637076e+03
 8.6260595e+00   6.4971698e+03
 8.6307402e+00   6.4025514e+03
 8.6354198e+00   6.3324439e+03
 8.6400995e+00   6.2598711e+03
 8.6447802e+00   6.1850277e+03
 8.6494598e+00   6.1033336e+03
 8.6541405e+00   6.0488334e+03
 8.6588202e+00   5.9759876e+03
 8.6634998e+00   5.9227925e+03
 8.6681805e+00   5.8704429e+03
 8.6728601e+00   5.8276923e+03
 8.6775398e+00   5.7783220e+03
 8.6822205e+00   5.7337975e+03
 8.6869001e+00   5.7018321e+03
 8.6915798e+00   5.6621796e+03
 8.6962605e+00   5.6300967e+03
 8.7009401e+00   5.6115341e+03
 8.7056198e+00   5.5879731e+03
 8.7103004e+00   5.5563226e+03
 8.7149801e+00   5.5545812e+03
 8.7196598e+00   5.5222128e+03
 8.7243404e+00   5.5014560e+03
 8.7290201e+00   5.4882293e+03
 8.7336998e+00   5.4655980e+03
 8.7383804e+00   5.4464165e+03
 8.7430601e+00   5.4445233e+03
 8.7477398e+00   5.4113203e+03
 8.7524204e+00   5.4135203e+03
 8.7571001e+00   5.3909551e+03
 8.7617798e+00   5.3797089e+03
 8.7664604e+00   5.3712608e+03
 8.7711401e+00   5.3414186e+03
 8.7758198e+00   5.3212204e+03
 8.7805004e+00   5.3394672e+03
 8.7851801e+00   5.3151335e+03
 8.7898598e+00   5.2994136e+03
 8.7945404e+00   5.3094940e+03
 8.7992201e+00   5.2637019e+03
 8.8038998e+00   5.2831647e+03
 8.8085804e+00   5.2517562e+03
 8.8132601e+00   5.2587390e+03
 8.8179398e+00   5.2322846e+03
 8.8226204e+00   5.2316421e+03
 8.8273001e+00   5.2086214e+03
 8.8319798e+00   5.2103750e+03
 8.8366604e+00   5.1717736e+03
 8.8413401e+00   5.2001225e+03
 8.8460197e+00   5.1663941e+03
 8.8507004e+00   5.1541670e+03
 8.8553801e+00   5.1313700e+03
 8.8600597e+00   5.1061896e+03
 8.8647404e+00   5.1108741e+03
 8.8694201e+00   5.0827239e+03
 8.8740997e+00   5.0742518e+03
 8.8787804e+00   5.0544112e+03
 8.8834600e+00   5.0563734e+03
 8.8881397e+00   5.0380305e+03
 8.8928204e+00   5.0383214e+03
 8.8975000e+00   5.0247451e+03
 8.9021797e+00   5.0358953e+03
 8.9068604e+00   5.0211700e+03
 8.9115400e+00   5.0154518e+03
 8.9162197e+00   5.0271976e+03
 8.9209003e+00   5.0090808e+03
 8.9255800e+00   5.0117970e+03
 8.9302597e+00   5.0089692e+03
 8.9349403e+00   4.9976463e+03
 8.9396200e+00   4.9899731e+03
 8.9442997e+00   4.9956727e+03
 8.9489803e+00   4.9861172e+03
 8.9536600e+00   5.0037832e+03
 8.9583397e+00   4.9867614e+03
 8.9630203e+00   5.0040211e+03
 8.9677000e+00   4.9949620e+03
 8.9723797e+00   5.0005608e+03
 8.9770603e+00   4.9795531e+03
 8.9817400e+00   5.0053576e+03
 8.9864197e+00   4.9944347e+03
 8.9911003e+00   4.9949778e+03
 8.9957800e+00   4.9894636e+03
 9.0004597e+00   4.9927057e+03
 9.0051403e+00   4.9828410e+03
 9.0098200e+00   4.9948155e+03
 9.0144997e+00   4.9820128e+03
 9.0191803e+00   4.9770470e+03
 9.0238600e+00   4.9838219e+03
 9.0285397e+00   4.9622895e+03
 9.0332203e+00   4.9624718e+03
 9.0379000e+00   4.9641634e+03
 9.0425797e+00   4.9633204e+03
 9.0472603e+00   4.9497260e+03
 9.0519400e+00   4.9581358e+03
 9.0566196e+00   4.9437354e+03
 9.0613003e+00   4.9543796e+03
 9.0659800e+00   4.9530066e+03
 9.0706596e+00   4.9441188e+03
 9.0753403e+00   4.9472360e+03
 9.0800200e+00   4.9462446e+03
 9.0846996e+00   4.9491526e+03
 9.0893803e+00   4.9512147e+03
 9.0940599e+00   4.9491051e+03
 9.0987396e+00   4.9540412e+03
 9.1034203e+00   4.9600959e+03
 9.1080999e+00   4.9633247e+03
 9.1127796e+00   4.9696472e+03
 9.1174603e+00   4.9821037e+03
 9.1221399e+00   4.9861937e+03
 9.1268196e+00   4.9904351e+03
 9.1315002e+00   4.9974951e+03
 9.1361799e+00   4.9956787e+03
 9.1408596e+00   5.0077707e+03
 9.1455402e+00   5.0098520e+03
 9.1502199e+00   5.0337542e+03
 9.1548996e+00   5.0342978e+03
 9.1595802e+00   5.0497214e+03
 9.1642599e+00   5.0641397e+03
 9.1689396e+00   5.0692514e+03
 9.1736202e+00   5.0828630e+03
 9.1782999e+00   5.0923626e+03
 9.1829796e+00   5.1025088e+03
 9.1876602e+00   5.1316950e+03
 9.1923399e+00   5.1492489e+03
 9.1970196e+00   5.1586813e+03
 9.2017002e+00   5.1897551e+03
 9.2063799e+00   5.1878347e+03
 9.2110596e+00   5.2047338e+03
 9.2157402e+00   5.2320800e+03
 9.2204199e+00   5.2355654e+03
 9.2250996e+00   5.2558098e+03
 9.2297802e+00   5.2796426e+03
 9.2344599e+00   5.2973487e+03
 9.2391396e+00   5.3199151e+03
 9.2438202e+00   5.3406477e+03
 9.2484999e+00   5.3588316e+03
 9.2531796e+00   5.3787516e+03
 9.2578602e+00   5.4158826e+03
 9.2625399e+00   5.4311522e+03
 9.2672195e+00   5.4619482e+03
 9.2719002e+00   5.4809191e+03
 9.2765799e+00   5.5262717e+03
 9.2812595e+00   5.5468555e+03
 9.2859402e+00   5.5577133e+03
 9.2906199e+00   5.5865945e+03
 9.2952995e+00   5.6037160e+03
 9.2999802e+00   5.6314013e+03
 9.3046598e+00   5.6568705e+03
 9.3093395e+00   5.6698469e+03
 9.3140202e+00   5.6857190e+03
 9.3186998e+00   5.6994374e+03
 9.3233805e+00   5.7142195e+03
 9.3280602e+00   5.7286599e+03
 9.3327398e+00   5.7350580e+03
 9.3374205e+00   5.7350342e+03
 9.3421001e+00   5.7402065e+03
 9.3467798e+00   5.7289150e+03
 9.3514605e+00   5.7280524e+03
 9.3561401e+00   5.7041013e+03
 9.3608198e+00   5.6893849e+03
 9.3655005e+00   5.6823641e+03
 9.3701801e+00   5.6434316e+03
 9.3748598e+00   5.6106407e+03
 9.3795404e+00   5.5835389e+03
 9.3842201e+00   5.5485156e+03
 9.3888998e+00   5.5284306e+03
 9.3935804e+00   5.4801346e+03
 9.3982601e+00   5.4491547e+03
 9.4029398e+00   5.4160014e+03
 9.4076204e+00   5.3737329e+03
 9.4123001e+00   5.3494496e+03
 9.4169798e+00   5.3232814e+03
 9.4216604e+00   5.2999436e+03
 9.4263401e+00   5.2807876e+03
 9.4310198e+00   5.2614060e+03
 9.4357004e+00   5.2326019e+03
 9.4403801e+00   5.2221909e+03
 9.4450598e+00   5.2044298e+03
 9.4497404e+00   5.1967799e+03
 9.4544201e+00   5.1942638e+03
 9.4590998e+00   5.1759222e+03
 9.4637804e+00   5.1758517e+03
 9.4684601e+00   5.1742179e+03
 9.4731398e+00   5.1896848e+03
 9.4778204e+00   5.1829291e+03
 9.4825001e+00   5.1947048e+03
 9.4871798e+00   5.1814900e+03
 9.4918604e+00   5.2096227e+03
 9.4965401e+00   5.1969585e+03
 9.5012197e+00   5.2107944e+03
 9.5059004e+00   5.1985256e+03
 9.5105801e+00   5.2023759e+03
 9.5152597e+00   5.2113044e+03
 9.5199404e+00   5.2056574e+03
 9.5246201e+00   5.2009686e+03
 9.5292997e+00   5.2140372e+03
 9.5339804e+00   5.2048477e+03
 9.5386600e+00   5.2223031e+03
 9.5433397e+00   5.2191822e+03
 9.5480204e+00   5.2263407e+03
 9.5527000e+00   5.2390686e+03
 9.5573797e+00   5.2413256e+03
 9.5620604e+00   5.2484343e+03
 9.5667400e+00   5.2632723e+03
 9.5714197e+00   5.2699439e+03
 9.5761003e+00   5.2900831e+03
 9.5807800e+00   5.2968620e+03
 9.5854597e+00   5.3056787e+03
 9.5901403e+00   5.3180895e+03
 9.5948200e+00   5.3354702e+03
 9.5994997e+00   5.3389736e+03
 9.6041803e+00   5.3599112e+03
 9.6088600e+00   5.3672954e+03
 9.6135397e+00   5.3841806e+03
 9.6182203e+00   5.3905922e+03
 9.6229000e+00   5.3855235e+03
 9.6275797e+00   5.3994825e+03
 9.6322603e+00   5.3867449e+03
 9.6369400e+00   5.3926777e+03
 9.6416197e+00   5.3923639e+03
 9.6463003e+00   5.3919670e+03
 9.6509800e+00   5.4015476e+03
 9.6556597e+00   5.4008905e+03
 9.6603403e+00   5.4062478e+03
 9.6650200e+00   5.4163491e+03
 9.6696997e+00   5.4214599e+03
 9.6743803e+00   5.4352615e+03
 9.6790600e+00   5.4306977e+03
 9.6837397e+00   5.4288965e+03
 9.6884203e+00   5.4457302e+03
 9.6931000e+00   5.4237837e+03
 9.6977797e+00   5.4312713e+03
 9.7024603e+00   5.4210927e+03
 9.7071400e+00   5.3950679e+03
 9.7118196e+00   5.3783668e+03
 9.7165003e+00   5.3496774e+03
 9.7211800e+00   5.3116378e+03
 9.7258596e+00   5.3031147e+03
 9.7305403e+00   5.2602493e+03
 9.7352200e+00   5.2309997e+03
 9.7398996e+00   5.2149097e+03
 9.7445803e+00   5.1806150e+03
 9.7492599e+00   5.1706089e+03
 9.7539396e+00   5.1530419e+03
 9.7586203e+00   5.1437922e+03
 9.7632999e+00   5.1387172e+03
 9.7679796e+00   5.1398960e+03
 9.7726603e+00   5.1374632e+03
 9.7773399e+00   5.1477078e+03
 9.7820196e+00   5.1416506e+03
 9.7867002e+00   5.1662793e+03
 9.7913799e+00   5.1884182e+03
 9.7960596e+00   5.2147073e+03
 9.8007402e+00   5.2230672e+03
 9.8054199e+00   5.2838481e+03
 9.8100996e+00   5.3470386e+03
 9.8147802e+00   5.4238632e+03
 9.8194599e+00   5.5429229e+03
 9.8241396e+00   5.6842660e+03
 9.8288202e+00   5.7661193e+03
 9.8334999e+00   6.3818828e+03
 9.8381796e+00   6.8401067e+03
 9.8428602e+00   7.5418924e+03
 9.8475399e+00   8.5039646e+03
 9.8522196e+00   8.9914041e+03
 9.8569002e+00   1.0118014e+04
 9.8615799e+00   1.1004614e+04
 9.8662596e+00   1.1127337e+04
 9.8709402e+00   1.0428777e+04
 9.8756199e+00   9.6569589e+03
 9.8802996e+00   8.4568187e+03
 9.8849802e+00   7.0877601e+03
 9.8896599e+00   6.8249776e+03
 9.8943396e+00   6.5028355e+03
 9.8990202e+00   6.1119681e+03
 9.9036999e+00   5.8513787e+03
 9.9083796e+00   5.6777576e+03
 9.9130602e+00   5.5680729e+03
 9.9177399e+00   5.5148712e+03
 9.9224195e+00   5.4684860e+03
 9.9271002e+00   5.4563026e+03
 9.9317799e+00   5.4268645e+03
 9.9364595e+00   5.4169909e+03
 9.9411402e+00   5.4047172e+03
 9.9458199e+00   5.4036744e+03
 9.9504995e+00   5.4019843e+03
 9.9551802e+00   5.4057062e+03
 9.9598598e+00   5.4037315e+03
 9.9645395e+00   5.3946210e+03
 9.9692202e+00   5.3922238e+03
 9.9738998e+00   5.4072021e+03
 9.9785805e+00   5.4025692e+03
 9.9832602e+00   5.4023906e+03
 9.9879398e+00   5.4122308e+03
 9.9926205e+00   5.4114137e+03
 9.9973001e+00   5.4127197e+03
 1.0001980e+01   5.4068145e+03
 1.0006660e+01   5.4011375e+03
 1.0011340e+01   5.3753722e+03
 1.0016020e+01   5.3718420e+03
 1.0020700e+01   5.3632910e+03
 1.0025380e+01   5.3541425e+03
 1.0030060e+01   5.3335503e+03
 1.0034740e+01   5.3330907e+03
 1.0039420e+01   5.3095485e+03
 1.0044100e+01   5.2974536e+03
 1.0048780e+01   5.2923193e+03
 1.0053460e+01   5.2784798e+03
 1.0058140e+01   5.2775713e+03
 1.0062820e+01   5.2624745e+03
 1.0067500e+01   5.2626759e+03
 1.0072180e+01   5.2401330e+03
 1.0076860e+01   5.2486681e+03
 1.0081540e+01   5.2246753e+03
 1.0086220e+01   5.2425895e+03
 1.0090900e+01   5.2315453e+03
 1.0095580e+01   5.2393441e+03
 1.0100260e+01   5.2263599e+03
 1.0104940e+01   5.2264918e+03
 1.0109620e+01   5.2286748e+03
 1.0114300e+01   5.2250166e+03
 1.0118980e+01   5.2377100e+03
 1.0123660e+01   5.2439898e+03
 1.0128340e+01   5.2290768e+03
 1.0133020e+01   5.2351405e+03
 1.0137700e+01   5.2523367e+03
 1.0142380e+01   5.2561003e+03
 1.0147060e+01   5.2678868e+03
 1.0151740e+01   5.2766884e+03
 1.0156420e+01   5.2995612e+03
 1.0161100e+01   5.3046497e+03
 1.0165780e+01   5.3156235e+03
 1.0170460e+01   5.3423827e+03
 1.0175140e+01   5.3565527e+03
 1.0179820e+01   5.3643040e+03
 1.0184500e+01   5.3951588e+03
 1.0189180e+01   5.3909842e+03
 1.0193860e+01   5.4586824e+03
 1.0198540e+01   5.4656326e+03
 1.0203220e+01   5.4918534e+03
 1.0207900e+01   5.5192604e+03
 1.0212580e+01   5.5339442e+03
 1.0217260e+01   5.5739847e+03
 1.0221940e+01   5.5750074e+03
 1.0226620e+01   5.5960601e+03
 1.0231300e+01   5.6301770e+03
 1.0235980e+01   5.6307570e+03
 1.0240660e+01   5.6328635e+03
 1.0245340e+01   5.6655079e+03
 1.0250020e+01   5.6515197e+03
 1.0254700e+01   5.6772727e+03
 1.0259380e+01   5.6941407e+03
 1.0264060e+01   5.7610217e+03
 1.0268740e+01   5.8670018e+03
 1.0273420e+01   5.9032364e+03
 1.0278100e+01   5.7988289e+03
 1.0282780e+01   5.7348286e+03
 1.0287460e+01   5.8538306e+03
 1.0292140e+01   5.9806682e+03
 1.0296820e+01   6.0113466e+03
 1.0301500e+01   6.0667697e+03
 1.0306180e+01   6.0850136e+03
 1.0310860e+01   5.9622217e+03
 1.0315540e+01   5.8894117e+03
 1.0320220e+01   5.7664952e+03
 1.0324900e+01   5.8511064e+03
 1.0329580e+01   5.9280879e+03
 1.0334260e+01   5.6993705e+03
 1.0338940e+01   5.4922435e+03
 1.0343620e+01   5.4167718e+03
 1.0348300e+01   5.3568940e+03
 1.0352980e+01   5.2920368e+03
 1.0357660e+01   5.2719852e+03
 1.0362340e+01   5.2474007e+03
 1.0367020e+01   5.2303655e+03
 1.0371700e+01   5.2108592e+03
 1.0376380e+01   5.2300285e+03
 1.0381060e+01   5.2191453e+03
 1.0385740e+01   5.2274959e+03
 1.0390420e+01   5.2099774e+03
 1.0395100e+01   5.2213489e+03
 1.0399780e+01   5.2262822e+03
 1.0404460e+01   5.2182378e+03
 1.0409140e+01   5.2332828e+03
 1.0413820e+01   5.2264843e+03
 1.0418500e+01   5.2492643e+03
 1.0423180e+01   5.2556361e+03
 1.0427860e+01   5.2555298e+03
 1.0432540e+01   5.2622976e+03
 1.0437220e+01   5.2872442e+03
 1.0441900e+01   5.2964719e+03
 1.0446580e+01   5.3239108e+03
 1.0451260e+01   5.3164659e+03
 1.0455940e+01   5.3338770e+03
 1.0460620e+01   5.3510870e+03
 1.0465300e+01   5.3538919e+03
 1.0469980e+01   5.3787175e+03
 1.0474660e+01   5.3839027e+03
 1.0479340e+01   5.3936140e+03
 1.0484020e+01   5.3971678e+03
 1.0488700e+01   5.4016712e+03
 1.0493380e+01   5.4041753e+03
 1.0498060e+01   5.4078021e+03
 1.0502740e+01   5.3887848e+03
 1.0507420e+01   5.4148651e+03
 1.0512100e+01   5.3893261e+03
 1.0516780e+01   5.3909896e+03
 1.0521460e+01   5.3766201e+03
 1.0526140e+01   5.3615137e+03
 1.0530820e+01   5.3547453e+03
 1.0535500e+01   5.3553970e+03
 1.0540180e+01   5.3137996e+03
 1.0544860e+01   5.3111676e+03
 1.0549540e+01   5.2927354e+03
 1.0554220e+01   5.2797652e+03
 1.0558900e+01   5.2761662e+03
 1.0563580e+01   5.2597533e+03
 1.0568260e+01   5.2407625e+03
 1.0572940e+01   5.2207766e+03
 1.0577620e+01   5.2078442e+03
 1.0582300e+01   5.1845073e+03
 1.0586980e+01   5.1861650e+03
 1.0591660e+01   5.1657190e+03
 1.0596340e+01   5.1559723e+03
 1.0601020e+01   5.1403742e+03
 1.0605700e+01   5.1393569e+03
 1.0610380e+01   5.1221804e+03
 1.0615060e+01   5.1045795e+03
 1.0619740e+01   5.1077618e+03
 1.0624420e+01   5.1013352e+03
 1.0629100e+01   5.0983999e+03
 1.0633780e+01   5.0793279e+03
 1.0638460e+01   5.0834108e+03
 1.0643140e+01   5.0689253e+03
 1.0647820e+01   5.0686103e+03
 1.0652500e+01   5.0692453e+03
 1.0657180e+01   5.0703282e+03
 1.0661860e+01   5.0616797e+03
 1.0666540e+01   5.0678989e+03
 1.0671220e+01   5.0569488e+03
 1.0675900e+01   5.0591229e+03
 1.0680580e+01   5.0538386e+03
 1.0685260e+01   5.0435180e+03
 1.0689940e+01   5.0641568e+03
 1.0694620e+01   5.0535560e+03
 1.0699300e+01   5.0537133e+03
 1.0703980e+01   5.0749190e+03
 1.0708660e+01   5.0734644e+03
 1.0713340e+01   5.0823020e+03
 1.0718020e+01   5.0905161e+03
 1.0722700e+01   5.0863367e+03
 1.0727380e+01   5.1255190e+03
 1.0732060e+01   5.1052510e+03
 1.0736740e+01   5.1264265e+03
 1.0741420e+01   5.1277902e+03
 1.0746100e+01   5.1438796e+03
 1.0750780e+01   5.1666092e+03
 1.0755460e+01   5.1585292e+03
 1.0760140e+01   5.1572829e+03
 1.0764820e+01   5.1660964e+03
 1.0769500e+01   5.1656570e+03
 1.0774180e+01   5.1620570e+03
 1.0778860e+01   5.1799752e+03
 1.0783540e+01   5.1579568e+03
 1.0788220e+01   5.1792326e+03
 1.0792900e+01   5.1529899e+03
 1.0797580e+01   5.1643488e+03
 1.0802260e+01   5.1532377e+03
 1.0806940e+01   5.1425752e+03
 1.0811620e+01   5.1513439e+03
 1.0816300e+01   5.1376414e+03
 1.0820980e+01   5.1402730e+03
 1.0825660e+01   5.1265274e+03
 1.0830340e+01   5.1264384e+03
 1.0835020e+01   5.1177223e+03
 1.0839700e+01   5.1187055e+03
 1.0844380e+01   5.1094923e+03
 1.0849060e+01   5.1050450e+03
 1.0853740e+01   5.0927932e+03
 1.0858420e+01   5.0879722e+03
 1.0863100e+01   5.0829301e+03
 1.0867780e+01   5.0771602e+03
 1.0872460e+01   5.0596600e+03
 1.0877140e+01   5.0437960e+03
 1.0881820e+01   5.0313676e+03
 1.0886500e+01   5.0173486e+03
 1.0891180e+01   5.0072411e+03
 1.0895860e+01   4.9988385e+03
 1.0900540e+01   4.9982162e+03
 1.0905220e+01   4.9758843e+03
 1.0909900e+01   4.9622256e+03
 1.0914580e+01   4.9541906e+03
 1.0919260e+01   4.9377596e+03
 1.0923940e+01   4.9197906e+03
 1.0928620e+01   4.9171356e+03
 1.0933300e+01   4.9091859e+03
 1.0937980e+01   4.9054852e+03
 1.0942660e+01   4.8913382e+03
 1.0947340e+01   4.8900215e+03
 1.0952020e+01   4.8680299e+03
 1.0956700e+01   4.8676812e+03
 1.0961380e+01   4.8691715e+03
 1.0966060e+01   4.8540301e+03
 1.0970740e+01   4.8565244e+03
 1.0975420e+01   4.8485816e+03
 1.0980100e+01   4.8433122e+03
 1.0984780e+01   4.8389779e+03
 1.0989460e+01   4.8373179e+03
 1.0994140e+01   4.8321212e+03
 1.0998820e+01   4.8339851e+03
 1.1003500e+01   4.8183832e+03
 1.1008180e+01   4.8282841e+03
 1.1012860e+01   4.8246390e+03
 1.1017540e+01   4.8127400e+03
 1.1022220e+01   4.8263555e+03
 1.1026900e+01   4.8203158e+03
 1.1031580e+01   4.8293292e+03
 1.1036260e+01   4.8268551e+03
 1.1040940e+01   4.8360390e+03
 1.1045620e+01   4.8220813e+03
 1.1050300e+01   4.8354124e+03
 1.1054980e+01   4.8323490e+03
 1.1059660e+01   4.8480424e+03
 1.1064340e+01   4.8391634e+03
 1.1069020e+01   4.8483154e+03
 1.1073700e+01   4.8591156e+03
 1.1078380e+01   4.8533266e+03
 1.1083060e+01   4.8689747e+03
 1.1087740e+01   4.8771096e+03
 1.1092420e+01   4.8798943e+03
 1.1097100e+01   4.9085570e+03
 1.1101780e+01   4.9102747e+03
 1.1106460e+01   4.9203839e+03
 1.1111140e+01   4.9402694e+03
 1.1115820e+01   4.9418001e+03
 1.1120500e+01   4.9589699e+03
 1.1125180e+01   4.9625630e+03
 1.1129860e+01   4.9828121e+03
 1.1134540e+01   4.9897503e+03
 1.1139220e+01   4.9882654e+03
 1.1143900e+01   5.0049156e+03
 1.1148580e+01   5.0018150e+03
 1.1153260e+01   5.0064432e+03
 1.1157940e+01   5.0082189e+03
 1.1162620e+01   5.0018133e+03
 1.1167300e+01   4.9942208e+03
 1.1171980e+01   4.9900178e+03
 1.1176660e+01   4.9740491e+03
 1.1181340e+01   4.9805279e+03
 1.1186020e+01   4.9586656e+03
 1.1190700e+01   4.9585151e+03
 1.1195380e+01   4.9399488e+03
 1.1200060e+01   4.9217239e+03
 1.1204740e+01   4.9243681e+03
 1.1209420e+01   4.9072883e+03
 1.1214100e+01   4.8990903e+03
 1.1218780e+01   4.8967963e+03
 1.1223460e+01   4.8744642e+03
 1.1228140e+01   4.8832788e+03
 1.1232820e+01   4.8751038e+03
 1.1237500e+01   4.8468607e+03
 1.1242180e+01   4.8506162e+03
 1.1246860e+01   4.8259981e+03
 1.1251540e+01   4.8141934e+03
 1.1256220e+01   4.7990906e+03
 1.1260900e+01   4.7814930e+03
 1.1265580e+01   4.7685939e+03
 1.1270260e+01   4.7546076e+03
 1.1274940e+01   4.7291804e+03
 1.1279620e+01   4.7399738e+03
 1.1284300e+01   4.7135774e+03
 1.1288980e+01   4.7108055e+03
 1.1293660e+01   4.7062007e+03
 1.1298340e+01   4.6763110e+03
 1.1303020e+01   4.6872404e+03
 1.1307700e+01   4.6734267e+03
 1.1312380e+01   4.6626321e+03
 1.1317060e+01   4.6638315e+03
 1.1321740e+01   4.6452397e+03
 1.1326420e+01   4.6430893e+03
 1.1331100e+01   4.6446095e+03
 1.1335780e+01   4.6274330e+03
 1.1340460e+01   4.6192380e+03
 1.1345140e+01   4.6226274e+03
 1.1349820e+01   4.6032407e+03
 1.1354500e+01   4.6242819e+03
 1.1359180e+01   4.5908584e+03
 1.1363860e+01   4.5970901e+03
 1.1368540e+01   4.5855703e+03
 1.1373220e+01   4.5819828e+03
 1.1377900e+01   4.5869781e+03
 1.1382580e+01   4.5719072e+03
 1.1387260e+01   4.5650669e+03
 1.1391940e+01   4.5719807e+03
 1.1396620e+01   4.5574440e+03
 1.1401300e+01   4.5589768e+03
 1.1405980e+01   4.5529472e+03
 1.1410660e+01   4.5505974e+03
 1.1415340e+01   4.5482710e+03
 1.1420020e+01   4.5408447e+03
 1.1424700e+01   4.5418143e+03
 1.1429380e+01   4.5422650e+03
 1.1434060e+01   4.5241774e+03
 1.1438740e+01   4.5264861e+03
 1.1443420e+01   4.5294909e+03
 1.1448100e+01   4.5206947e+03
 1.1452780e+01   4.5296043e+03
 1.1457460e+01   4.5192962e+03
 1.1462140e+01   4.5129884e+03
 1.1466820e+01   4.5167630e+03
 1.1471500e+01   4.5039433e+03
 1.1476180e+01   4.5093105e+03
 1.1480860e+01   4.5075918e+03
 1.1485540e+01   4.5057686e+03
 1.1490220e+01   4.5055688e+03
 1.1494900e+01   4.4991038e+03
 1.1499580e+01   4.4933154e+03
 1.1504260e+01   4.4935859e+03
 1.1508940e+01   4.4950090e+03
 1.1513620e+01   4.4951241e+03
 1.1518300e+01   4.4845361e+03
 1.1522980e+01   4.4822911e+03
 1.1527660e+01   4.4800094e+03
 1.1532340e+01   4.4743118e+03
 1.1537020e+01   4.4785922e+03
 1.1541700e+01   4.4626727e+03
 1.1546380e+01   4.4636310e+03
 1.1551060e+01   4.4666121e+03
 1.1555740e+01   4.4559809e+03
 1.1560420e+01   4.4520735e+03
 1.1565100e+01   4.4554294e+03
 1.1569780e+01   4.4373762e+03
 1.1574460e+01   4.4439763e+03
 1.1579140e+01   4.4402731e+03
 1.1583820e+01   4.4357109e+03
 1.1588500e+01   4.4379404e+03
 1.1593180e+01   4.4370326e+03
 1.1597860e+01   4.4421779e+03
 1.1602540e+01   4.4372375e+03
 1.1607220e+01   4.4423001e+03
 1.1611900e+01   4.4379001e+03
 1.1616580e+01   4.4306244e+03
 1.1621260e+01   4.4388666e+03
 1.1625940e+01   4.4326160e+03
 1.1630620e+01   4.4314427e+03
 1.1635300e+01   4.4318965e+03
 1.1639980e+01   4.4239995e+03
 1.1644660e+01   4.4199744e+03
 1.1649340e+01   4.4163979e+03
 1.1654020e+01   4.4072600e+03
 1.1658700e+01   4.4030060e+03
 1.1663380e+01   4.4093099e+03
 1.1668060e+01   4.3935600e+03
 1.1672740e+01   4.4000892e+03
 1.1677420e+01   4.3890825e+03
 1.1682100e+01   4.3837864e+03
 1.1686780e+01   4.3814928e+03
 1.1691460e+01   4.3780901e+03
 1.1696140e+01   4.3787626e+03
 1.1700820e+01   4.3827947e+03
 1.1705500e+01   4.3775176e+03
 1.1710180e+01   4.3932224e+03
 1.1714860e+01   4.3738747e+03
 1.1719540e+01   4.3658278e+03
 1.1724220e+01   4.3825755e+03
 1.1728900e+01   4.3657071e+03
 1.1733580e+01   4.3710384e+03
 1.1738260e+01   4.3616136e+03
 1.1742940e+01   4.3598093e+03
 1.1747620e+01   4.3725510e+03
 1.1752300e+01   4.3687517e+03
 1.1756980e+01   4.3699078e+03
 1.1761660e+01   4.3781954e+03
 1.1766340e+01   4.3697792e+03
 1.1771020e+01   4.3638436e+03
 1.1775700e+01   4.3700824e+03
 1.1780380e+01   4.3747245e+03
 1.1785060e+01   4.3727385e+03
 1.1789740e+01   4.3693098e+03
 1.1794420e+01   4.3819912e+03
 1.1799100e+01   4.3799805e+03
 1.1803780e+01   4.3816765e+03
 1.1808460e+01   4.3837216e+03
 1.1813140e+01   4.3751986e+03
 1.1817820e+01   4.3834229e+03
 1.1822500e+01   4.3888884e+03
 1.1827180e+01   4.3901259e+03
 1.1831860e+01   4.4026723e+03
 1.1836540e+01   4.4074886e+03
 1.1841220e+01   4.4059419e+03
 1.1845900e+01   4.4250232e+03
 1.1850580e+01   4.4318763e+03
 1.1855260e+01   4.4452221e+03
 1.1859940e+01   4.4584634e+03
 1.1864620e+01   4.4804727e+03
 1.1869300e+01   4.5037369e+03
 1.1873980e+01   4.5325781e+03
 1.1878660e+01   4.5500256e+03
 1.1883340e+01   4.5690771e+03
 1.1888020e+01   4.6020653e+03
 1.1892700e+01   4.6427567e+03
 1.1897380e+01   4.6844843e+03
 1.1902060e+01   4.6973578e+03
 1.1906740e+01   4.7239224e+03
 1.1911420e+01   4.7092683e+03
 1.1916100e+01   4.7084651e+03
 1.1920780e+01   4.6780094e+03
 1.1925460e+01   4.6597546e+03
 1.1930140e+01   4.6551915e+03
 1.1934820e+01   4.6384801e+03
 1.1939500e+01   4.6470023e+03
 1.1944180e+01   4.6200247e+03
 1.1948860e+01   4.6170177e+03
 1.1953540e+01   4.6150934e+03
 1.1958220e+01   4.6044175e+03
 1.1962900e+01   4.6100366e+03
 1.1967580e+01   4.6269864e+03
 1.1972260e+01   4.6108283e+03
 1.1976940e+01   4.6220324e+03
 1.1981620e+01   4.6141318e+03
 1.1986300e+01   4.6148799e+03
 1.1990980e+01   4.6276798e+03
 1.1995660e+01   4.6027120e+03
 1.2000340e+01   4.6094819e+03
 1.2005020e+01   4.6000963e+03
 1.2009700e+01   4.5929139e+03
 1.2014380e+01   4.5987416e+03
 1.2019060e+01   4.5868843e+03
 1.2023740e+01   4.5663717e+03
 1.2028420e+01   4.5717174e+03
 1.2033100e+01   4.5492798e+03
 1.2037780e+01   4.5385214e+03
 1.2042460e+01   4.5224215e+03
 1.2047140e+01   4.5088167e+03
 1.2051820e+01   4.4989428e+03
 1.2056500e+01   4.4829023e+03
 1.2061180e+01   4.4785567e+03
 1.2065860e+01   4.4589680e+03
 1.2070540e+01   4.4529646e+03
 1.2075220e+01   4.4440350e+03
 1.2079900e+01   4.4448424e+03
 1.2084580e+01   4.4297711e+03
 1.2089260e+01   4.4289421e+03
 1.2093940e+01   4.4148162e+03
 1.2098620e+01   4.4026611e+03
 1.2103300e+01   4.3994335e+03
 1.2107980e+01   4.4008047e+03
 1.2112660e+01   4.3881939e+03
 1.2117340e+01   4.3751332e+03
 1.2122020e+01   4.3588994e+03
 1.2126700e+01   4.3518766e+03
 1.2131380e+01   4.3301591e+03
 1.2136060e+01   4.3171088e+03
 1.2140740e+01   4.3042906e+03
 1.2145420e+01   4.2872143e+03
 1.2150100e+01   4.2878962e+03
 1.2154780e+01   4.2712383e+03
 1.2159460e+01   4.2595787e+03
 1.2164140e+01   4.2543728e+03
 1.2168820e+01   4.2339300e+03
 1.2173500e+01   4.2234004e+03
 1.2178180e+01   4.2226120e+03
 1.2182860e+01   4.1994283e+03
 1.2187540e+01   4.1970372e+03
 1.2192220e+01   4.1912152e+03
 1.2196900e+01   4.1876849e+03
 1.2201580e+01   4.1827198e+03
 1.2206260e+01   4.1652802e+03
 1.2210940e+01   4.1714908e+03
 1.2215620e+01   4.1577305e+03
 1.2220300e+01   4.1595889e+03
 1.2224980e+01   4.1483099e+03
 1.2229660e+01   4.1435362e+03
 1.2234340e+01   4.1408684e+03
 1.2239020e+01   4.1325743e+03
 1.2243700e+01   4.1368957e+03
 1.2248380e+01   4.1269500e+03
 1.2253060e+01   4.1318813e+03
 1.2257740e+01   4.1255974e+03
 1.2262420e+01   4.1311307e+03
 1.2267100e+01   4.1203120e+03
 1.2271780e+01   4.1224937e+03
 1.2276460e+01   4.1227925e+03
 1.2281140e+01   4.1234594e+03
 1.2285820e+01   4.1160206e+03
 1.2290500e+01   4.1108390e+03
 1.2295180e+01   4.1154672e+03
 1.2299860e+01   4.1090262e+03
 1.2304540e+01   4.1136071e+03
 1.2309220e+01   4.1127576e+03
 1.2313900e+01   4.1098358e+03
 1.2318580e+01   4.1125189e+03
 1.2323260e+01   4.1026384e+03
 1.2327940e+01   4.1055237e+03
 1.2332620e+01   4.1162943e+03
 1.2337300e+01   4.1180004e+03
 1.2341980e+01   4.1141174e+03
 1.2346660e+01   4.1211960e+03
 1.2351340e+01   4.1269354e+03
 1.2356020e+01   4.1262941e+03
 1.2360700e+01   4.1277033e+03
 1.2365380e+01   4.1403448e+03
 1.2370060e+01   4.1455463e+03
 1.2374740e+01   4.1515494e+03
 1.2379420e+01   4.1453527e+03
 1.2384100e+01   4.1542370e+03
 1.2388780e+01   4.1552574e+03
 1.2393460e+01   4.1576420e+03
 1.2398140e+01   4.1612275e+03
 1.2402820e+01   4.1623645e+03
 1.2407500e+01   4.1630322e+03
 1.2412180e+01   4.1564158e+03
 1.2416860e+01   4.1610983e+03
 1.2421540e+01   4.1654476e+03
 1.2426220e+01   4.1683384e+03
 1.2430900e+01   4.1615183e+03
 1.2435580e+01   4.1680942e+03
 1.2440260e+01   4.1637001e+03
 1.2444940e+01   4.1793775e+03
 1.2449620e+01   4.1766814e+03
 1.2454300e+01   4.1691171e+03
 1.2458980e+01   4.1731227e+03
 1.2463660e+01   4.1625860e+03
 1.2468340e+01   4.1703740e+03
 1.2473020e+01   4.1611889e+03
 1.2477700e+01   4.1687499e+03
 1.2482380e+01   4.1618068e+03
 1.2487060e+01   4.1558649e+03
 1.2491740e+01   4.1601228e+03
 1.2496420e+01   4.1533627e+03
 1.2501100e+01   4.1424178e+03
 1.2505780e+01   4.1446807e+03
 1.2510460e+01   4.1373268e+03
 1.2515140e+01   4.1339205e+03
 1.2519820e+01   4.1290181e+03
 1.2524500e+01   4.1297668e+03
 1.2529180e+01   4.1290925e+03
 1.2533860e+01   4.1197449e+03
 1.2538540e+01   4.1231248e+03
 1.2543220e+01   4.1236921e+03
 1.2547900e+01   4.1238029e+03
 1.2552580e+01   4.1215156e+03
 1.2557260e+01   4.1195422e+03
 1.2561940e+01   4.1165396e+03
 1.2566620e+01   4.1197026e+03
 1.2571300e+01   4.1282037e+03
 1.2575980e+01   4.1294548e+03
 1.2580660e+01   4.1304250e+03
 1.2585340e+01   4.1288007e+03
 1.2590020e+01   4.1422483e+03
 1.2594700e+01   4.1378705e+03
 1.2599380e+01   4.1454839e+03
 1.2604060e+01   4.1454852e+03
 1.2608740e+01   4.1481497e+03
 1.2613420e+01   4.1504871e+03
 1.2618100e+01   4.1613815e+03
 1.2622780e+01   4.1738365e+03
 1.2627460e+01   4.1720173e+03
 1.2632140e+01   4.1858782e+03
 1.2636820e+01   4.1938880e+03
 1.2641500e+01   4.1937234e+03
 1.2646180e+01   4.1910688e+03
 1.2650860e+01   4.2051940e+03
 1.2655540e+01   4.2172992e+03
 1.2660220e+01   4.2224509e+03
 1.2664900e+01   4.2257973e+03
 1.2669580e+01   4.2313151e+03
 1.2674260e+01   4.2392531e+03
 1.2678940e+01   4.2439941e+03
 1.2683620e+01   4.2497764e+03
 1.2688300e+01   4.2569983e+03
 1.2692980e+01   4.2601467e+03
 1.2697660e+01   4.2671743e+03
