MA2b-00001.tif Azm= 0.00
2-Theta Angle (Degrees)
Intensity
       2500
 1.0023400e+00   7.8379739e+03
 1.0070200e+00   7.8497399e+03
 1.0117000e+00   7.7937918e+03
 1.0163800e+00   7.7908275e+03
 1.0210600e+00   7.7157402e+03
 1.0257400e+00   7.7448015e+03
 1.0304199e+00   7.6841321e+03
 1.0351000e+00   7.6590224e+03
 1.0397800e+00   7.6368873e+03
 1.0444601e+00   7.5974410e+03
 1.0491400e+00   7.5907209e+03
 1.0538200e+00   7.5826109e+03
 1.0585001e+00   7.5234635e+03
 1.0631800e+00   7.4789870e+03
 1.0678600e+00   7.5154770e+03
 1.0725400e+00   7.4884358e+03
 1.0772200e+00   7.4365292e+03
 1.0819000e+00   7.4320662e+03
 1.0865800e+00   7.4269434e+03
 1.0912600e+00   7.4119748e+03
 1.0959400e+00   7.4020534e+03
 1.1006200e+00   7.3730234e+03
 1.1052999e+00   7.3343437e+03
 1.1099800e+00   7.3227661e+03
 1.1146600e+00   7.3243406e+03
 1.1193399e+00   7.2938565e+03
 1.1240200e+00   7.2755724e+03
 1.1287000e+00   7.2616437e+03
 1.1333801e+00   7.2536631e+03
 1.1380600e+00   7.2361384e+03
 1.1427400e+00   7.2624710e+03
 1.1474200e+00   7.2178261e+03
 1.1521000e+00   7.2068945e+03
 1.1567800e+00   7.1893982e+03
 1.1614600e+00   7.1588149e+03
 1.1661400e+00   7.1562544e+03
 1.1708200e+00   7.1490453e+03
 1.1755000e+00   7.1363074e+03
 1.1801800e+00   7.1385845e+03
 1.1848600e+00   7.1501706e+03
 1.1895400e+00   7.1453561e+03
 1.1942199e+00   7.1070665e+03
 1.1989000e+00   7.0943169e+03
 1.2035800e+00   7.0984250e+03
 1.2082601e+00   7.0855105e+03
 1.2129400e+00   7.0793421e+03
 1.2176200e+00   7.0667935e+03
 1.2223001e+00   7.1079860e+03
 1.2269800e+00   7.0508507e+03
 1.2316600e+00   7.0515606e+03
 1.2363400e+00   7.0472902e+03
 1.2410200e+00   7.0549333e+03
 1.2457000e+00   7.0774710e+03
 1.2503800e+00   7.0335319e+03
 1.2550600e+00   7.0544654e+03
 1.2597400e+00   7.0451598e+03
 1.2644200e+00   7.0526002e+03
 1.2691000e+00   7.0387455e+03
 1.2737800e+00   7.0666819e+03
 1.2784600e+00   7.0701296e+03
 1.2831399e+00   7.0343086e+03
 1.2878200e+00   7.0543541e+03
 1.2925000e+00   7.0416346e+03
 1.2971801e+00   7.0608763e+03
 1.3018600e+00   7.0650593e+03
 1.3065400e+00   7.0574524e+03
 1.3112200e+00   7.0612662e+03
 1.3159000e+00   7.0438900e+03
 1.3205800e+00   7.0422189e+03
 1.3252600e+00   7.0841818e+03
 1.3299400e+00   7.0553599e+03
 1.3346200e+00   7.1034036e+03
 1.3393000e+00   7.0887568e+03
 1.3439800e+00   7.0925639e+03
 1.3486600e+00   7.0763098e+03
 1.3533400e+00   7.0962005e+03
 1.3580199e+00   7.1084678e+03
 1.3627000e+00   7.1247804e+03
 1.3673800e+00   7.1314673e+03
 1.3720599e+00   7.1237111e+03
 1.3767400e+00   7.1369087e+03
 1.3814200e+00   7.1476483e+03
 1.3861001e+00   7.1707204e+03
 1.3907800e+00   7.1722951e+03
 1.3954600e+00   7.2120582e+03
 1.4001400e+00   7.1835432e+03
 1.4048200e+00   7.2241510e+03
 1.4095000e+00   7.2224380e+03
 1.4141800e+00   7.2485088e+03
 1.4188600e+00   7.2709035e+03
 1.4235400e+00   7.3099390e+03
 1.4282200e+00   7.3242128e+03
 1.4329000e+00   7.3700513e+03
 1.4375800e+00   7.3530531e+03
 1.4422600e+00   7.3510409e+03
 1.4469399e+00   7.3927905e+03
 1.4516200e+00   7.4015191e+03
 1.4563000e+00   7.4296336e+03
 1.4609801e+00   7.4880055e+03
 1.4656600e+00   7.5042161e+03
 1.4703400e+00   7.5176481e+03
 1.4750201e+00   7.5397181e+03
 1.4797000e+00   7.5701040e+03
 1.4843800e+00   7.5820497e+03
 1.4890600e+00   7.6243016e+03
 1.4937400e+00   7.6484875e+03
 1.4984200e+00   7.6467467e+03
 1.5031000e+00   7.6806215e+03
 1.5077800e+00   7.6611003e+03
 1.5124600e+00   7.6986623e+03
 1.5171400e+00   7.7290930e+03
 1.5218199e+00   7.7042288e+03
 1.5265000e+00   7.6751361e+03
 1.5311800e+00   7.7154274e+03
 1.5358599e+00   7.7038258e+03
 1.5405400e+00   7.7059854e+03
 1.5452200e+00   7.6814180e+03
 1.5499001e+00   7.7252178e+03
 1.5545800e+00   7.6624050e+03
 1.5592600e+00   7.6745245e+03
 1.5639400e+00   7.7020195e+03
 1.5686200e+00   7.6688256e+03
 1.5733000e+00   7.6689194e+03
 1.5779800e+00   7.6936672e+03
 1.5826600e+00   7.6410551e+03
 1.5873400e+00   7.6459921e+03
 1.5920200e+00   7.6560969e+03
 1.5967000e+00   7.6508755e+03
 1.6013800e+00   7.6617868e+03
 1.6060600e+00   7.6291088e+03
 1.6107399e+00   7.6336595e+03
 1.6154200e+00   7.6702474e+03
 1.6201000e+00   7.6259196e+03
 1.6247801e+00   7.6303129e+03
 1.6294600e+00   7.6402281e+03
 1.6341400e+00   7.6290140e+03
 1.6388201e+00   7.6347858e+03
 1.6435000e+00   7.6425141e+03
 1.6481800e+00   7.6065187e+03
 1.6528600e+00   7.6612816e+03
 1.6575400e+00   7.6542445e+03
 1.6622200e+00   7.6406038e+03
 1.6669000e+00   7.6516118e+03
 1.6715800e+00   7.6728890e+03
 1.6762600e+00   7.6332664e+03
 1.6809400e+00   7.6706456e+03
 1.6856200e+00   7.6535659e+03
 1.6903000e+00   7.6668195e+03
 1.6949800e+00   7.6792978e+03
 1.6996599e+00   7.6452542e+03
 1.7043400e+00   7.6737539e+03
 1.7090200e+00   7.6420030e+03
 1.7137001e+00   7.6687786e+03
 1.7183800e+00   7.6414188e+03
 1.7230600e+00   7.6849296e+03
 1.7277400e+00   7.6658045e+03
 1.7324200e+00   7.7069399e+03
 1.7371000e+00   7.6676957e+03
 1.7417800e+00   7.7116589e+03
 1.7464600e+00   7.6734866e+03
 1.7511400e+00   7.7184411e+03
 1.7558200e+00   7.6921683e+03
 1.7605000e+00   7.7225023e+03
 1.7651800e+00   7.7254925e+03
 1.7698600e+00   7.7303196e+03
 1.7745399e+00   7.7174174e+03
 1.7792200e+00   7.7617857e+03
 1.7839000e+00   7.7607514e+03
 1.7885799e+00   7.7653204e+03
 1.7932600e+00   7.7902468e+03
 1.7979400e+00   7.7942555e+03
 1.8026201e+00   7.8155928e+03
 1.8073000e+00   7.8269333e+03
 1.8119800e+00   7.8411390e+03
 1.8166600e+00   7.8450345e+03
 1.8213400e+00   7.8662006e+03
 1.8260200e+00   7.8787885e+03
 1.8307000e+00   7.8877308e+03
 1.8353800e+00   7.9358431e+03
 1.8400600e+00   7.9250475e+03
 1.8447400e+00   7.9337551e+03
 1.8494200e+00   7.9679902e+03
 1.8541000e+00   7.9680297e+03
 1.8587800e+00   7.9894221e+03
 1.8634599e+00   8.0189014e+03
 1.8681400e+00   8.0136568e+03
 1.8728200e+00   8.0731912e+03
 1.8775001e+00   8.0574171e+03
 1.8821800e+00   8.1230150e+03
 1.8868600e+00   8.1297315e+03
 1.8915401e+00   8.1466527e+03
 1.8962200e+00   8.1770094e+03
 1.9009000e+00   8.1746792e+03
 1.9055800e+00   8.2056023e+03
 1.9102600e+00   8.2620056e+03
 1.9149400e+00   8.2496084e+03
 1.9196200e+00   8.2571408e+03
 1.9243000e+00   8.3279471e+03
 1.9289800e+00   8.3064497e+03
 1.9336600e+00   8.3401941e+03
 1.9383399e+00   8.3938702e+03
 1.9430200e+00   8.3900712e+03
 1.9477000e+00   8.4218381e+03
 1.9523799e+00   8.4692024e+03
 1.9570600e+00   8.4745642e+03
 1.9617400e+00   8.5275814e+03
 1.9664201e+00   8.5266211e+03
 1.9711000e+00   8.6482158e+03
 1.9757800e+00   8.5954487e+03
 1.9804600e+00   8.6371404e+03
 1.9851400e+00   8.6276206e+03
 1.9898200e+00   8.6382572e+03
 1.9945000e+00   8.6607503e+03
 1.9991800e+00   8.6964187e+03
 2.0038600e+00   8.7111636e+03
 2.0085399e+00   8.7535203e+03
 2.0132201e+00   8.7567079e+03
 2.0179000e+00   8.7737351e+03
 2.0225799e+00   8.8036083e+03
 2.0272601e+00   8.8253856e+03
 2.0319400e+00   8.8632831e+03
 2.0366199e+00   8.8620366e+03
 2.0413001e+00   8.9167426e+03
 2.0459800e+00   8.9593093e+03
 2.0506599e+00   8.9742263e+03
 2.0553401e+00   8.9745261e+03
 2.0600200e+00   9.0287054e+03
 2.0646999e+00   9.0475713e+03
 2.0693800e+00   9.1099305e+03
 2.0740600e+00   9.1300673e+03
 2.0787399e+00   9.1818766e+03
 2.0834200e+00   9.2635794e+03
 2.0881000e+00   9.3015070e+03
 2.0927801e+00   9.3956569e+03
 2.0974600e+00   9.4858157e+03
 2.1021399e+00   9.6005386e+03
 2.1068201e+00   9.7529232e+03
 2.1115000e+00   9.9280757e+03
 2.1161799e+00   1.0169592e+04
 2.1208601e+00   1.0491705e+04
 2.1255400e+00   1.0931010e+04
 2.1302199e+00   1.1590248e+04
 2.1349001e+00   1.2488634e+04
 2.1395800e+00   1.3586260e+04
 2.1442599e+00   1.4894036e+04
 2.1489401e+00   1.6468130e+04
 2.1536200e+00   1.8017130e+04
 2.1582999e+00   1.9535047e+04
 2.1629801e+00   2.1026475e+04
 2.1676600e+00   2.2386969e+04
 2.1723399e+00   2.3355563e+04
 2.1770201e+00   2.3916831e+04
 2.1817000e+00   2.4087493e+04
 2.1863799e+00   2.3739122e+04
 2.1910601e+00   2.3020153e+04
 2.1957400e+00   2.2065211e+04
 2.2004199e+00   2.0877743e+04
 2.2051001e+00   1.9713027e+04
 2.2097800e+00   1.8623137e+04
 2.2144599e+00   1.7668960e+04
 2.2191401e+00   1.6858677e+04
 2.2238200e+00   1.6218727e+04
 2.2284999e+00   1.5686737e+04
 2.2331800e+00   1.5246420e+04
 2.2378600e+00   1.4769687e+04
 2.2425399e+00   1.4377917e+04
 2.2472200e+00   1.3865002e+04
 2.2519000e+00   1.3313572e+04
 2.2565801e+00   1.2748268e+04
 2.2612600e+00   1.2221615e+04
 2.2659400e+00   1.1697764e+04
 2.2706201e+00   1.1318678e+04
 2.2753000e+00   1.1031198e+04
 2.2799799e+00   1.0809022e+04
 2.2846601e+00   1.0687274e+04
 2.2893400e+00   1.0548135e+04
 2.2940199e+00   1.0511092e+04
 2.2987001e+00   1.0475158e+04
 2.3033800e+00   1.0482020e+04
 2.3080599e+00   1.0442823e+04
 2.3127401e+00   1.0454921e+04
 2.3174200e+00   1.0470324e+04
 2.3220999e+00   1.0462373e+04
 2.3267801e+00   1.0475272e+04
 2.3314600e+00   1.0487729e+04
 2.3361399e+00   1.0523603e+04
 2.3408201e+00   1.0563969e+04
 2.3455000e+00   1.0575533e+04
 2.3501799e+00   1.0596111e+04
 2.3548601e+00   1.0616390e+04
 2.3595400e+00   1.0630250e+04
 2.3642199e+00   1.0684922e+04
 2.3689001e+00   1.0705821e+04
 2.3735800e+00   1.0742562e+04
 2.3782599e+00   1.0754999e+04
 2.3829401e+00   1.0799151e+04
 2.3876200e+00   1.0819177e+04
 2.3922999e+00   1.0853150e+04
 2.3969800e+00   1.0905521e+04
 2.4016600e+00   1.0934914e+04
 2.4063399e+00   1.0976782e+04
 2.4110200e+00   1.0991214e+04
 2.4157000e+00   1.1041850e+04
 2.4203801e+00   1.1067145e+04
 2.4250600e+00   1.1136927e+04
 2.4297400e+00   1.1153206e+04
 2.4344201e+00   1.1179473e+04
 2.4391000e+00   1.1217787e+04
 2.4437799e+00   1.1247141e+04
 2.4484601e+00   1.1289010e+04
 2.4531400e+00   1.1351397e+04
 2.4578199e+00   1.1374919e+04
 2.4625001e+00   1.1412601e+04
 2.4671800e+00   1.1445741e+04
 2.4718599e+00   1.1464376e+04
 2.4765401e+00   1.1490460e+04
 2.4812200e+00   1.1523015e+04
 2.4858999e+00   1.1582444e+04
 2.4905801e+00   1.1620864e+04
 2.4952600e+00   1.1654437e+04
 2.4999399e+00   1.1677893e+04
 2.5046201e+00   1.1711598e+04
 2.5093000e+00   1.1773459e+04
 2.5139799e+00   1.1792443e+04
 2.5186601e+00   1.1842933e+04
 2.5233400e+00   1.1870493e+04
 2.5280199e+00   1.1912682e+04
 2.5327001e+00   1.1926105e+04
 2.5373800e+00   1.1984515e+04
 2.5420599e+00   1.2002805e+04
 2.5467401e+00   1.2042259e+04
 2.5514200e+00   1.2065187e+04
 2.5560999e+00   1.2094092e+04
 2.5607800e+00   1.2134970e+04
 2.5654600e+00   1.2144357e+04
 2.5701399e+00   1.2191360e+04
 2.5748200e+00   1.2211552e+04
 2.5795000e+00   1.2263574e+04
 2.5841801e+00   1.2271595e+04
 2.5888600e+00   1.2288545e+04
 2.5935400e+00   1.2330886e+04
 2.5982201e+00   1.2379776e+04
 2.6029000e+00   1.2396043e+04
 2.6075799e+00   1.2432114e+04
 2.6122601e+00   1.2446843e+04
 2.6169400e+00   1.2455896e+04
 2.6216199e+00   1.2489028e+04
 2.6263001e+00   1.2520652e+04
 2.6309800e+00   1.2528073e+04
 2.6356599e+00   1.2548970e+04
 2.6403401e+00   1.2578227e+04
 2.6450200e+00   1.2566079e+04
 2.6496999e+00   1.2617430e+04
 2.6543801e+00   1.2620170e+04
 2.6590600e+00   1.2650092e+04
 2.6637399e+00   1.2656891e+04
 2.6684201e+00   1.2688087e+04
 2.6731000e+00   1.2727394e+04
 2.6777799e+00   1.2714027e+04
 2.6824601e+00   1.2708146e+04
 2.6871400e+00   1.2744755e+04
 2.6918199e+00   1.2737129e+04
 2.6965001e+00   1.2768072e+04
 2.7011800e+00   1.2796520e+04
 2.7058599e+00   1.2781048e+04
 2.7105401e+00   1.2802208e+04
 2.7152200e+00   1.2802873e+04
 2.7198999e+00   1.2782313e+04
 2.7245800e+00   1.2808584e+04
 2.7292600e+00   1.2814893e+04
 2.7339399e+00   1.2798924e+04
 2.7386200e+00   1.2803460e+04
 2.7433000e+00   1.2779395e+04
 2.7479801e+00   1.2780863e+04
 2.7526600e+00   1.2786086e+04
 2.7573400e+00   1.2757953e+04
 2.7620201e+00   1.2782345e+04
 2.7667000e+00   1.2755839e+04
 2.7713799e+00   1.2723597e+04
 2.7760601e+00   1.2735999e+04
 2.7807400e+00   1.2725690e+04
 2.7854199e+00   1.2724669e+04
 2.7901001e+00   1.2726667e+04
 2.7947800e+00   1.2706876e+04
 2.7994599e+00   1.2694996e+04
 2.8041401e+00   1.2691451e+04
 2.8088200e+00   1.2654680e+04
 2.8134999e+00   1.2644143e+04
 2.8181801e+00   1.2609913e+04
 2.8228600e+00   1.2648015e+04
 2.8275399e+00   1.2634097e+04
 2.8322201e+00   1.2605995e+04
 2.8369000e+00   1.2571428e+04
 2.8415799e+00   1.2585958e+04
 2.8462601e+00   1.2537626e+04
 2.8509400e+00   1.2544358e+04
 2.8556199e+00   1.2516343e+04
 2.8603001e+00   1.2504489e+04
 2.8649800e+00   1.2486939e+04
 2.8696599e+00   1.2475271e+04
 2.8743401e+00   1.2448402e+04
 2.8790200e+00   1.2436302e+04
 2.8836999e+00   1.2400201e+04
 2.8883801e+00   1.2403861e+04
 2.8930600e+00   1.2382767e+04
 2.8977399e+00   1.2371925e+04
 2.9024200e+00   1.2350489e+04
 2.9071000e+00   1.2345400e+04
 2.9117801e+00   1.2292308e+04
 2.9164600e+00   1.2291998e+04
 2.9211400e+00   1.2281832e+04
 2.9258201e+00   1.2244934e+04
 2.9305000e+00   1.2230521e+04
 2.9351799e+00   1.2212085e+04
 2.9398601e+00   1.2181268e+04
 2.9445400e+00   1.2186136e+04
 2.9492199e+00   1.2134219e+04
 2.9539001e+00   1.2157085e+04
 2.9585800e+00   1.2119112e+04
 2.9632599e+00   1.2098061e+04
 2.9679401e+00   1.2065602e+04
 2.9726200e+00   1.2057844e+04
 2.9772999e+00   1.2020006e+04
 2.9819801e+00   1.2012808e+04
 2.9866600e+00   1.1955416e+04
 2.9913399e+00   1.1957595e+04
 2.9960201e+00   1.1934251e+04
 3.0007000e+00   1.1884943e+04
 3.0053799e+00   1.1873482e+04
 3.0100601e+00   1.1845748e+04
 3.0147400e+00   1.1807411e+04
 3.0194199e+00   1.1792358e+04
 3.0241001e+00   1.1772955e+04
 3.0287800e+00   1.1765683e+04
 3.0334599e+00   1.1731277e+04
 3.0381401e+00   1.1678967e+04
 3.0428200e+00   1.1677292e+04
 3.0474999e+00   1.1632503e+04
 3.0521801e+00   1.1606140e+04
 3.0568600e+00   1.1566427e+04
 3.0615399e+00   1.1548977e+04
 3.0662200e+00   1.1504422e+04
 3.0709000e+00   1.1498520e+04
 3.0755799e+00   1.1466305e+04
 3.0802600e+00   1.1450305e+04
 3.0849400e+00   1.1420328e+04
 3.0896201e+00   1.1378434e+04
 3.0943000e+00   1.1360350e+04
 3.0989799e+00   1.1368398e+04
 3.1036601e+00   1.1293169e+04
 3.1083400e+00   1.1303490e+04
 3.1130199e+00   1.1282986e+04
 3.1177001e+00   1.1271553e+04
 3.1223800e+00   1.1265786e+04
 3.1270599e+00   1.1205322e+04
 3.1317401e+00   1.1199756e+04
 3.1364200e+00   1.1174664e+04
 3.1410999e+00   1.1169128e+04
 3.1457801e+00   1.1128914e+04
 3.1504600e+00   1.1101841e+04
 3.1551399e+00   1.1115533e+04
 3.1598201e+00   1.1081865e+04
 3.1645000e+00   1.1043418e+04
 3.1691799e+00   1.1046430e+04
 3.1738601e+00   1.1025357e+04
 3.1785400e+00   1.1002157e+04
 3.1832199e+00   1.1007276e+04
 3.1879001e+00   1.1003367e+04
 3.1925800e+00   1.0968072e+04
 3.1972599e+00   1.0989598e+04
 3.2019401e+00   1.0931734e+04
 3.2066200e+00   1.0942182e+04
 3.2112999e+00   1.0926158e+04
 3.2159801e+00   1.0904296e+04
 3.2206600e+00   1.0893129e+04
 3.2253399e+00   1.0867318e+04
 3.2300200e+00   1.0838270e+04
 3.2347000e+00   1.0860440e+04
 3.2393799e+00   1.0831973e+04
 3.2440600e+00   1.0809059e+04
 3.2487400e+00   1.0798863e+04
 3.2534201e+00   1.0776431e+04
 3.2581000e+00   1.0768442e+04
 3.2627800e+00   1.0766196e+04
 3.2674601e+00   1.0748289e+04
 3.2721400e+00   1.0760454e+04
 3.2768199e+00   1.0748984e+04
 3.2815001e+00   1.0719910e+04
 3.2861800e+00   1.0735518e+04
 3.2908599e+00   1.0720690e+04
 3.2955401e+00   1.0698327e+04
 3.3002200e+00   1.0709199e+04
 3.3048999e+00   1.0691505e+04
 3.3095801e+00   1.0695258e+04
 3.3142600e+00   1.0708075e+04
 3.3189399e+00   1.0673790e+04
 3.3236201e+00   1.0693906e+04
 3.3283000e+00   1.0691128e+04
 3.3329799e+00   1.0663943e+04
 3.3376601e+00   1.0670128e+04
 3.3423400e+00   1.0668377e+04
 3.3470199e+00   1.0649308e+04
 3.3517001e+00   1.0670775e+04
 3.3563800e+00   1.0624533e+04
 3.3610599e+00   1.0652029e+04
 3.3657401e+00   1.0641949e+04
 3.3704200e+00   1.0627348e+04
 3.3750999e+00   1.0642224e+04
 3.3797801e+00   1.0641438e+04
 3.3844600e+00   1.0622301e+04
 3.3891399e+00   1.0631719e+04
 3.3938200e+00   1.0632056e+04
 3.3985000e+00   1.0635846e+04
 3.4031799e+00   1.0649357e+04
 3.4078600e+00   1.0607037e+04
 3.4125400e+00   1.0651406e+04
 3.4172201e+00   1.0643337e+04
 3.4219000e+00   1.0634751e+04
 3.4265800e+00   1.0663344e+04
 3.4312601e+00   1.0640625e+04
 3.4359400e+00   1.0693545e+04
 3.4406199e+00   1.0680116e+04
 3.4453001e+00   1.0678131e+04
 3.4499800e+00   1.0694277e+04
 3.4546599e+00   1.0689679e+04
 3.4593401e+00   1.0685637e+04
 3.4640200e+00   1.0683323e+04
 3.4686999e+00   1.0695383e+04
 3.4733801e+00   1.0685337e+04
 3.4780600e+00   1.0716004e+04
 3.4827399e+00   1.0686791e+04
 3.4874201e+00   1.0715271e+04
 3.4921000e+00   1.0693176e+04
 3.4967799e+00   1.0683802e+04
 3.5014601e+00   1.0697763e+04
 3.5061400e+00   1.0705708e+04
 3.5108199e+00   1.0688005e+04
 3.5155001e+00   1.0733326e+04
 3.5201800e+00   1.0700408e+04
 3.5248599e+00   1.0696505e+04
 3.5295401e+00   1.0742299e+04
 3.5342200e+00   1.0698477e+04
 3.5388999e+00   1.0757913e+04
 3.5435801e+00   1.0742294e+04
 3.5482600e+00   1.0708872e+04
 3.5529399e+00   1.0736247e+04
 3.5576200e+00   1.0757438e+04
 3.5623000e+00   1.0714402e+04
 3.5669799e+00   1.0771286e+04
 3.5716600e+00   1.0715613e+04
 3.5763400e+00   1.0774278e+04
 3.5810201e+00   1.0763838e+04
 3.5857000e+00   1.0762475e+04
 3.5903800e+00   1.0758941e+04
 3.5950601e+00   1.0837264e+04
 3.5997400e+00   1.0738630e+04
 3.6044199e+00   1.0835538e+04
 3.6091001e+00   1.0803007e+04
 3.6137800e+00   1.0773084e+04
 3.6184599e+00   1.0864173e+04
 3.6231401e+00   1.0832666e+04
 3.6278200e+00   1.0815532e+04
 3.6324999e+00   1.0868539e+04
 3.6371801e+00   1.0790956e+04
 3.6418600e+00   1.0854745e+04
 3.6465399e+00   1.0880614e+04
 3.6512201e+00   1.0816816e+04
 3.6559000e+00   1.0929563e+04
 3.6605799e+00   1.0881397e+04
 3.6652601e+00   1.0900466e+04
 3.6699400e+00   1.0982577e+04
 3.6746199e+00   1.0926310e+04
 3.6793001e+00   1.0959635e+04
 3.6839800e+00   1.1141846e+04
 3.6886599e+00   1.0905498e+04
 3.6933401e+00   1.1144631e+04
 3.6980200e+00   1.0981701e+04
 3.7026999e+00   1.1154737e+04
 3.7073801e+00   1.1123337e+04
 3.7120600e+00   1.1191983e+04
 3.7167399e+00   1.1082645e+04
 3.7214200e+00   1.1362269e+04
 3.7261000e+00   1.1170687e+04
 3.7307799e+00   1.1262291e+04
 3.7354600e+00   1.1315922e+04
 3.7401400e+00   1.1323788e+04
 3.7448201e+00   1.1484020e+04
 3.7495000e+00   1.1392523e+04
 3.7541800e+00   1.1461417e+04
 3.7588601e+00   1.1439066e+04
 3.7635400e+00   1.1544853e+04
 3.7682199e+00   1.1600669e+04
 3.7729001e+00   1.1804012e+04
 3.7775800e+00   1.1569763e+04
 3.7822599e+00   1.1903702e+04
 3.7869401e+00   1.1699489e+04
 3.7916200e+00   1.1932627e+04
 3.7962999e+00   1.1990998e+04
 3.8009801e+00   1.2199739e+04
 3.8056600e+00   1.1877123e+04
 3.8103399e+00   1.2444493e+04
 3.8150201e+00   1.1904402e+04
 3.8197000e+00   1.2635943e+04
 3.8243799e+00   1.2427675e+04
 3.8290601e+00   1.2787034e+04
 3.8337400e+00   1.2452840e+04
 3.8384199e+00   1.3151906e+04
 3.8431001e+00   1.2668780e+04
 3.8477800e+00   1.3287324e+04
 3.8524599e+00   1.3247466e+04
 3.8571401e+00   1.3638806e+04
 3.8618200e+00   1.3667343e+04
 3.8664999e+00   1.3624877e+04
 3.8711801e+00   1.3995516e+04
 3.8758600e+00   1.4303323e+04
 3.8805399e+00   1.4692189e+04
 3.8852201e+00   1.5354521e+04
 3.8899000e+00   1.5381041e+04
 3.8945799e+00   1.5899040e+04
 3.8992600e+00   1.6607453e+04
 3.9039400e+00   1.7596952e+04
 3.9086201e+00   1.8262198e+04
 3.9133000e+00   2.3119970e+04
 3.9179800e+00   2.2621096e+04
 3.9226601e+00   3.0967089e+04
 3.9273400e+00   3.2405056e+04
 3.9320199e+00   5.0041783e+04
 3.9367001e+00   5.2533811e+04
 3.9413800e+00   8.4826648e+04
 3.9460599e+00   7.3320091e+04
 3.9507401e+00   8.7766099e+04
 3.9554200e+00   8.1049704e+04
 3.9600999e+00   9.2748300e+04
 3.9647801e+00   9.4834120e+04
 3.9694600e+00   1.0305776e+05
 3.9741399e+00   1.1900770e+05
 3.9788201e+00   9.2479246e+04
 3.9835000e+00   1.0081572e+05
 3.9881799e+00   5.2952982e+04
 3.9928601e+00   7.9313613e+04
 3.9975400e+00   3.5015138e+04
 4.0022202e+00   4.6565572e+04
 4.0068998e+00   3.0966362e+04
 4.0115800e+00   3.0858883e+04
 4.0162601e+00   1.9540918e+04
 4.0209398e+00   2.0674116e+04
 4.0256200e+00   1.7074655e+04
 4.0303001e+00   1.7454846e+04
 4.0349798e+00   1.5052132e+04
 4.0396600e+00   1.5473432e+04
 4.0443401e+00   1.4639777e+04
 4.0490198e+00   1.3765585e+04
 4.0537000e+00   1.4123140e+04
 4.0583801e+00   1.2990055e+04
 4.0630598e+00   1.3541101e+04
 4.0677400e+00   1.2588679e+04
 4.0724201e+00   1.2755163e+04
 4.0770998e+00   1.2154878e+04
 4.0817800e+00   1.2355064e+04
 4.0864601e+00   1.2093080e+04
 4.0911398e+00   1.2124141e+04
 4.0958200e+00   1.1627281e+04
 4.1005001e+00   1.1596698e+04
 4.1051798e+00   1.1402628e+04
 4.1098599e+00   1.1073272e+04
 4.1145401e+00   1.1347772e+04
 4.1192198e+00   1.1011525e+04
 4.1238999e+00   1.0912475e+04
 4.1285801e+00   1.0734374e+04
 4.1332598e+00   1.0613819e+04
 4.1379399e+00   1.0450021e+04
 4.1426201e+00   1.0651057e+04
 4.1472998e+00   1.0072748e+04
 4.1519799e+00   1.0361452e+04
 4.1566601e+00   1.0037609e+04
 4.1613402e+00   1.0117304e+04
 4.1660199e+00   9.8086191e+03
 4.1707001e+00   9.9903303e+03
 4.1753802e+00   9.6511945e+03
 4.1800599e+00   9.9134878e+03
 4.1847401e+00   9.4776157e+03
 4.1894202e+00   9.7214428e+03
 4.1940999e+00   9.3990703e+03
 4.1987801e+00   9.5091841e+03
 4.2034602e+00   9.4088041e+03
 4.2081399e+00   9.3608440e+03
 4.2128201e+00   9.3187014e+03
 4.2175002e+00   9.3625970e+03
 4.2221799e+00   9.1570624e+03
 4.2268600e+00   9.0723394e+03
 4.2315402e+00   9.1786511e+03
 4.2362199e+00   8.9269284e+03
 4.2409000e+00   9.0239523e+03
 4.2455802e+00   8.9212205e+03
 4.2502599e+00   8.8354160e+03
 4.2549400e+00   8.7910969e+03
 4.2596202e+00   8.9314110e+03
 4.2642999e+00   8.7397416e+03
 4.2689800e+00   8.8805537e+03
 4.2736602e+00   8.7115610e+03
 4.2783399e+00   8.8008676e+03
 4.2830200e+00   8.6512524e+03
 4.2877002e+00   8.7637689e+03
 4.2923799e+00   8.6987336e+03
 4.2970600e+00   8.8659280e+03
 4.3017402e+00   8.7278495e+03
 4.3064198e+00   8.8633338e+03
 4.3111000e+00   8.7533606e+03
 4.3157802e+00   8.9237454e+03
 4.3204598e+00   8.9474093e+03
 4.3251400e+00   8.9240717e+03
 4.3298202e+00   9.0084970e+03
 4.3344998e+00   9.0349924e+03
 4.3391800e+00   9.0523915e+03
 4.3438601e+00   9.1912987e+03
 4.3485398e+00   9.1909187e+03
 4.3532200e+00   9.2010472e+03
 4.3579001e+00   9.2268654e+03
 4.3625798e+00   9.0908858e+03
 4.3672600e+00   9.0863251e+03
 4.3719401e+00   9.0153769e+03
 4.3766198e+00   8.9354498e+03
 4.3813000e+00   8.8646085e+03
 4.3859801e+00   8.7589165e+03
 4.3906598e+00   8.6344344e+03
 4.3953400e+00   8.6006669e+03
 4.4000201e+00   8.4404601e+03
 4.4046998e+00   8.4359477e+03
 4.4093800e+00   8.2985080e+03
 4.4140601e+00   8.2256173e+03
 4.4187398e+00   8.1812700e+03
 4.4234200e+00   8.0943200e+03
 4.4281001e+00   7.9980985e+03
 4.4327798e+00   8.0324476e+03
 4.4374599e+00   7.9146650e+03
 4.4421401e+00   7.8824483e+03
 4.4468198e+00   7.8665558e+03
 4.4514999e+00   7.7850481e+03
 4.4561801e+00   7.8088617e+03
 4.4608598e+00   7.7750307e+03
 4.4655399e+00   7.7368190e+03
 4.4702201e+00   7.7572520e+03
 4.4748998e+00   7.7138502e+03
 4.4795799e+00   7.6729534e+03
 4.4842601e+00   7.7125290e+03
 4.4889398e+00   7.6546932e+03
 4.4936199e+00   7.5819385e+03
 4.4983001e+00   7.5717337e+03
 4.5029802e+00   7.4714257e+03
 4.5076599e+00   7.4311327e+03
 4.5123401e+00   7.3558831e+03
 4.5170202e+00   7.2538027e+03
 4.5216999e+00   7.2115281e+03
 4.5263801e+00   7.1312904e+03
 4.5310602e+00   7.0810383e+03
 4.5357399e+00   7.0627190e+03
 4.5404201e+00   7.0193197e+03
 4.5451002e+00   6.9852533e+03
 4.5497799e+00   6.9617249e+03
 4.5544600e+00   6.9257140e+03
 4.5591402e+00   6.9352424e+03
 4.5638199e+00   6.8960730e+03
 4.5685000e+00   6.8426289e+03
 4.5731802e+00   6.8795641e+03
 4.5778599e+00   6.8452403e+03
 4.5825400e+00   6.8302690e+03
 4.5872202e+00   6.8161575e+03
 4.5918999e+00   6.8023238e+03
 4.5965800e+00   6.7841140e+03
 4.6012602e+00   6.7413977e+03
 4.6059399e+00   6.7408323e+03
 4.6106200e+00   6.7373152e+03
 4.6153002e+00   6.7171509e+03
 4.6199799e+00   6.6702935e+03
 4.6246600e+00   6.6831373e+03
 4.6293402e+00   6.6674836e+03
 4.6340199e+00   6.6510399e+03
 4.6387000e+00   6.6508810e+03
 4.6433802e+00   6.6278930e+03
 4.6480598e+00   6.6220431e+03
 4.6527400e+00   6.5925455e+03
 4.6574202e+00   6.5617246e+03
 4.6620998e+00   6.5961574e+03
 4.6667800e+00   6.5729248e+03
 4.6714602e+00   6.5528887e+03
 4.6761398e+00   6.5562842e+03
 4.6808200e+00   6.5411104e+03
 4.6855001e+00   6.5385583e+03
 4.6901798e+00   6.5571586e+03
 4.6948600e+00   6.5589263e+03
 4.6995401e+00   6.5758823e+03
 4.7042198e+00   6.6070243e+03
 4.7089000e+00   6.6163621e+03
 4.7135801e+00   6.6913512e+03
 4.7182598e+00   6.7337566e+03
 4.7229400e+00   6.8602411e+03
 4.7276201e+00   6.9213230e+03
 4.7322998e+00   7.0167690e+03
 4.7369800e+00   7.1060054e+03
 4.7416601e+00   7.2014208e+03
 4.7463398e+00   7.2750398e+03
 4.7510200e+00   7.3612145e+03
 4.7557001e+00   7.4460089e+03
 4.7603798e+00   7.5558139e+03
 4.7650599e+00   7.6858739e+03
 4.7697401e+00   7.8383155e+03
 4.7744198e+00   8.0249194e+03
 4.7790999e+00   8.2351122e+03
 4.7837801e+00   8.4603407e+03
 4.7884598e+00   8.7289961e+03
 4.7931399e+00   8.9448039e+03
 4.7978201e+00   9.1376413e+03
 4.8024998e+00   9.2864891e+03
 4.8071799e+00   9.3677461e+03
 4.8118601e+00   9.3356676e+03
 4.8165398e+00   9.2158262e+03
 4.8212199e+00   9.0695516e+03
 4.8259001e+00   8.8160453e+03
 4.8305802e+00   8.5689930e+03
 4.8352599e+00   8.2806298e+03
 4.8399401e+00   8.0407073e+03
 4.8446202e+00   7.7731202e+03
 4.8492999e+00   7.5522276e+03
 4.8539801e+00   7.3617972e+03
 4.8586602e+00   7.1796149e+03
 4.8633399e+00   7.0481253e+03
 4.8680201e+00   6.9802647e+03
 4.8727002e+00   6.9141383e+03
 4.8773799e+00   6.9331291e+03
 4.8820601e+00   6.9820293e+03
 4.8867402e+00   7.0519327e+03
 4.8914199e+00   7.1900791e+03
 4.8961000e+00   7.4009855e+03
 4.9007802e+00   7.5474033e+03
 4.9054599e+00   7.7635894e+03
 4.9101400e+00   7.9443395e+03
 4.9148202e+00   8.1183252e+03
 4.9194999e+00   8.2532269e+03
 4.9241800e+00   8.3675220e+03
 4.9288602e+00   8.4417505e+03
 4.9335399e+00   8.4767488e+03
 4.9382200e+00   8.5053615e+03
 4.9429002e+00   8.4761071e+03
 4.9475799e+00   8.4882839e+03
 4.9522600e+00   8.4244773e+03
 4.9569402e+00   8.4001387e+03
 4.9616199e+00   8.3305290e+03
 4.9663000e+00   8.2798871e+03
 4.9709802e+00   8.2160798e+03
 4.9756598e+00   8.1564447e+03
 4.9803400e+00   8.0677136e+03
 4.9850202e+00   8.0065119e+03
 4.9896998e+00   7.8775715e+03
 4.9943800e+00   7.7831777e+03
 4.9990602e+00   7.6668913e+03
 5.0037398e+00   7.5244312e+03
 5.0084200e+00   7.3846485e+03
 5.0131001e+00   7.2184820e+03
 5.0177798e+00   7.0879317e+03
 5.0224600e+00   6.9619257e+03
 5.0271401e+00   6.8194534e+03
 5.0318198e+00   6.6963680e+03
 5.0365000e+00   6.6311139e+03
 5.0411801e+00   6.5060853e+03
 5.0458598e+00   6.4482527e+03
 5.0505400e+00   6.3894689e+03
 5.0552201e+00   6.3724567e+03
 5.0598998e+00   6.3366546e+03
 5.0645800e+00   6.3500502e+03
 5.0692601e+00   6.3701120e+03
 5.0739398e+00   6.3990869e+03
 5.0786200e+00   6.4838972e+03
 5.0833001e+00   6.6244057e+03
 5.0879798e+00   6.7222233e+03
 5.0926600e+00   6.8646581e+03
 5.0973401e+00   7.0076145e+03
 5.1020198e+00   7.3716918e+03
 5.1066999e+00   7.7136110e+03
 5.1113801e+00   7.8044427e+03
 5.1160598e+00   7.6026977e+03
 5.1207399e+00   7.8924003e+03
 5.1254201e+00   8.5392816e+03
 5.1300998e+00   9.8929729e+03
 5.1347799e+00   1.1084048e+04
 5.1394601e+00   1.2594125e+04
 5.1441398e+00   1.2928381e+04
 5.1488199e+00   1.3195630e+04
 5.1535001e+00   1.2086870e+04
 5.1581802e+00   1.1065805e+04
 5.1628599e+00   9.5942590e+03
 5.1675401e+00   8.5009344e+03
 5.1722202e+00   7.5846669e+03
 5.1768999e+00   6.9648253e+03
 5.1815801e+00   6.5803740e+03
 5.1862602e+00   6.5194899e+03
 5.1909399e+00   6.5830848e+03
 5.1956201e+00   6.4915961e+03
 5.2003002e+00   6.4130820e+03
 5.2049799e+00   6.2364149e+03
 5.2096601e+00   6.1907610e+03
 5.2143402e+00   6.1600926e+03
 5.2190199e+00   6.1328849e+03
 5.2237000e+00   6.0764737e+03
 5.2283802e+00   6.0313231e+03
 5.2330599e+00   5.9993226e+03
 5.2377400e+00   5.9699103e+03
 5.2424202e+00   5.9447409e+03
 5.2470999e+00   5.9264692e+03
 5.2517800e+00   5.9163734e+03
 5.2564602e+00   5.8973386e+03
 5.2611399e+00   5.8961737e+03
 5.2658200e+00   5.8824036e+03
 5.2705002e+00   5.8613397e+03
 5.2751799e+00   5.8427522e+03
 5.2798600e+00   5.8487246e+03
 5.2845402e+00   5.8126799e+03
 5.2892199e+00   5.8472791e+03
 5.2939000e+00   5.8064942e+03
 5.2985802e+00   5.7993060e+03
 5.3032598e+00   5.8255106e+03
 5.3079400e+00   5.8069977e+03
 5.3126202e+00   5.8112735e+03
 5.3172998e+00   5.8145620e+03
 5.3219800e+00   5.7872373e+03
 5.3266602e+00   5.8140496e+03
 5.3313398e+00   5.7730632e+03
 5.3360200e+00   5.7625458e+03
 5.3407001e+00   5.8016643e+03
 5.3453798e+00   5.7784107e+03
 5.3500600e+00   5.7794713e+03
 5.3547401e+00   5.7895673e+03
 5.3594198e+00   5.7691724e+03
 5.3641000e+00   5.7907441e+03
 5.3687801e+00   5.7858378e+03
 5.3734598e+00   5.7654895e+03
 5.3781400e+00   5.8205310e+03
 5.3828201e+00   5.8012585e+03
 5.3874998e+00   5.7863048e+03
 5.3921800e+00   5.8355861e+03
 5.3968601e+00   5.8052243e+03
 5.4015398e+00   5.8247655e+03
 5.4062200e+00   5.8501391e+03
 5.4109001e+00   5.8324493e+03
 5.4155798e+00   5.8744079e+03
 5.4202600e+00   5.8685955e+03
 5.4249401e+00   5.8739493e+03
 5.4296198e+00   5.9305048e+03
 5.4342999e+00   5.9308411e+03
 5.4389801e+00   5.9405380e+03
 5.4436598e+00   5.9826764e+03
 5.4483399e+00   5.9795135e+03
 5.4530201e+00   6.0448756e+03
 5.4576998e+00   6.0811819e+03
 5.4623799e+00   6.1271927e+03
 5.4670601e+00   6.2121677e+03
 5.4717398e+00   6.2668951e+03
 5.4764199e+00   6.3493690e+03
 5.4811001e+00   6.4746032e+03
 5.4857798e+00   6.5832348e+03
 5.4904599e+00   6.7370956e+03
 5.4951401e+00   6.9070621e+03
 5.4998202e+00   7.1361336e+03
 5.5044999e+00   7.4560352e+03
 5.5091801e+00   7.8126824e+03
 5.5138602e+00   8.2552188e+03
 5.5185399e+00   8.8176831e+03
 5.5232201e+00   9.4571896e+03
 5.5279002e+00   1.0230649e+04
 5.5325799e+00   1.1148687e+04
 5.5372601e+00   1.2077811e+04
 5.5419402e+00   1.3160514e+04
 5.5466199e+00   1.4091700e+04
 5.5513000e+00   1.4954988e+04
 5.5559802e+00   1.5652645e+04
 5.5606599e+00   1.6043498e+04
 5.5653400e+00   1.6170223e+04
 5.5700202e+00   1.6051437e+04
 5.5746999e+00   1.5689750e+04
 5.5793800e+00   1.5151040e+04
 5.5840602e+00   1.4515495e+04
 5.5887399e+00   1.3777517e+04
 5.5934200e+00   1.3113860e+04
 5.5981002e+00   1.2623150e+04
 5.6027799e+00   1.2169207e+04
 5.6074600e+00   1.1190987e+04
 5.6121402e+00   1.0566613e+04
 5.6168199e+00   9.9685627e+03
 5.6215000e+00   9.5058043e+03
 5.6261802e+00   9.0986727e+03
 5.6308599e+00   8.7699744e+03
 5.6355400e+00   8.4297149e+03
 5.6402202e+00   8.1284569e+03
 5.6448998e+00   7.8902761e+03
 5.6495800e+00   7.6304770e+03
 5.6542602e+00   7.4175998e+03
 5.6589398e+00   7.2281596e+03
 5.6636200e+00   7.0103320e+03
 5.6683002e+00   6.8600072e+03
 5.6729798e+00   6.6919354e+03
 5.6776600e+00   6.5599046e+03
 5.6823401e+00   6.4736346e+03
 5.6870198e+00   6.3635491e+03
 5.6917000e+00   6.2652374e+03
 5.6963801e+00   6.2250542e+03
 5.7010598e+00   6.1265636e+03
 5.7057400e+00   6.0998838e+03
 5.7104201e+00   6.0428133e+03
 5.7150998e+00   5.9781228e+03
 5.7197800e+00   5.9965285e+03
 5.7244601e+00   5.9408621e+03
 5.7291398e+00   5.9145249e+03
 5.7338200e+00   5.9334885e+03
 5.7385001e+00   5.9105317e+03
 5.7431798e+00   5.9148529e+03
 5.7478600e+00   5.9280268e+03
 5.7525401e+00   5.9013281e+03
 5.7572198e+00   5.9269919e+03
 5.7618999e+00   5.9220773e+03
 5.7665801e+00   5.8957730e+03
 5.7712598e+00   5.9097818e+03
 5.7759399e+00   5.8767095e+03
 5.7806201e+00   5.8649128e+03
 5.7852998e+00   5.8623181e+03
 5.7899799e+00   5.8194265e+03
 5.7946601e+00   5.8191978e+03
 5.7993398e+00   5.8117054e+03
 5.8040199e+00   5.7901376e+03
 5.8087001e+00   5.8125823e+03
 5.8133798e+00   5.7776437e+03
 5.8180599e+00   5.7476605e+03
 5.8227401e+00   5.7953944e+03
 5.8274202e+00   5.7628778e+03
 5.8320999e+00   5.7669443e+03
 5.8367801e+00   5.7890905e+03
 5.8414602e+00   5.7587391e+03
 5.8461399e+00   5.8020041e+03
 5.8508201e+00   5.8047785e+03
 5.8555002e+00   5.7981498e+03
 5.8601799e+00   5.8490305e+03
 5.8648601e+00   5.8571706e+03
 5.8695402e+00   5.8869280e+03
 5.8742199e+00   5.9187593e+03
 5.8789001e+00   5.9211846e+03
 5.8835802e+00   5.9904656e+03
 5.8882599e+00   6.0265595e+03
 5.8929400e+00   6.0619202e+03
 5.8976202e+00   6.1470753e+03
 5.9022999e+00   6.1810157e+03
 5.9069800e+00   6.3184638e+03
 5.9116602e+00   6.5386181e+03
 5.9163399e+00   6.7180853e+03
 5.9210200e+00   6.8944093e+03
 5.9257002e+00   7.0088180e+03
 5.9303799e+00   7.4436674e+03
 5.9350600e+00   7.7392251e+03
 5.9397402e+00   8.0809673e+03
 5.9444199e+00   8.0850208e+03
 5.9491000e+00   8.0212234e+03
 5.9537802e+00   7.7452647e+03
 5.9584599e+00   7.4619137e+03
 5.9631400e+00   7.1997091e+03
 5.9678202e+00   7.0963108e+03
 5.9724998e+00   7.0136947e+03
 5.9771800e+00   6.8870813e+03
 5.9818602e+00   6.7829667e+03
 5.9865398e+00   6.7382537e+03
 5.9912200e+00   6.7073004e+03
 5.9959002e+00   6.6630308e+03
 6.0005798e+00   6.6311652e+03
 6.0052600e+00   6.5419044e+03
 6.0099401e+00   6.5093861e+03
 6.0146198e+00   6.4572280e+03
 6.0193000e+00   6.3648127e+03
 6.0239801e+00   6.3568926e+03
 6.0286598e+00   6.2737542e+03
 6.0333400e+00   6.2072603e+03
 6.0380201e+00   6.1864346e+03
 6.0426998e+00   6.1166363e+03
 6.0473800e+00   6.0685503e+03
 6.0520601e+00   6.0421614e+03
 6.0567398e+00   5.9676703e+03
 6.0614200e+00   5.9578267e+03
 6.0661001e+00   5.9050188e+03
 6.0707798e+00   5.8778318e+03
 6.0754600e+00   5.8798987e+03
 6.0801401e+00   5.8552799e+03
 6.0848198e+00   5.8139674e+03
 6.0895000e+00   5.8202750e+03
 6.0941801e+00   5.7863751e+03
 6.0988598e+00   5.7894442e+03
 6.1035399e+00   5.7898366e+03
 6.1082201e+00   5.7641966e+03
 6.1128998e+00   5.7720640e+03
 6.1175799e+00   5.7652014e+03
 6.1222601e+00   5.7444715e+03
 6.1269398e+00   5.7509329e+03
 6.1316199e+00   5.7511594e+03
 6.1363001e+00   5.7507437e+03
 6.1409798e+00   5.7536391e+03
 6.1456599e+00   5.7234580e+03
 6.1503401e+00   5.7525107e+03
 6.1550202e+00   5.7315460e+03
 6.1596999e+00   5.7456375e+03
 6.1643801e+00   5.7427987e+03
 6.1690602e+00   5.7397529e+03
 6.1737399e+00   5.7337133e+03
 6.1784201e+00   5.7594493e+03
 6.1831002e+00   5.7372446e+03
 6.1877799e+00   5.7691398e+03
 6.1924601e+00   5.7441321e+03
 6.1971402e+00   5.7564639e+03
 6.2018199e+00   5.7589504e+03
 6.2065001e+00   5.7327414e+03
 6.2111802e+00   5.7595237e+03
 6.2158599e+00   5.7775711e+03
 6.2205400e+00   5.7554385e+03
 6.2252202e+00   5.7768100e+03
 6.2298999e+00   5.7820647e+03
 6.2345800e+00   5.7518107e+03
 6.2392602e+00   5.7731168e+03
 6.2439399e+00   5.7590833e+03
 6.2486200e+00   5.7645737e+03
 6.2533002e+00   5.7729815e+03
 6.2579799e+00   5.7803356e+03
 6.2626600e+00   5.7727727e+03
 6.2673402e+00   5.7956306e+03
 6.2720199e+00   5.7641316e+03
 6.2767000e+00   5.8154830e+03
 6.2813802e+00   5.7854830e+03
 6.2860599e+00   5.7924218e+03
 6.2907400e+00   5.7994163e+03
 6.2954202e+00   5.8126272e+03
 6.3000998e+00   5.8008318e+03
 6.3047800e+00   5.8253218e+03
 6.3094602e+00   5.8024079e+03
 6.3141398e+00   5.8305677e+03
 6.3188200e+00   5.8316717e+03
 6.3235002e+00   5.8208558e+03
 6.3281798e+00   5.8554823e+03
 6.3328600e+00   5.8469706e+03
 6.3375401e+00   5.8819278e+03
 6.3422198e+00   5.8888964e+03
 6.3469000e+00   5.8611767e+03
 6.3515801e+00   5.8804298e+03
 6.3562598e+00   5.9044855e+03
 6.3609400e+00   5.8649162e+03
 6.3656201e+00   5.9039478e+03
 6.3702998e+00   5.8642635e+03
 6.3749800e+00   5.8882424e+03
 6.3796601e+00   5.8795491e+03
 6.3843398e+00   5.9220726e+03
 6.3890200e+00   5.9130523e+03
 6.3937001e+00   5.9194526e+03
 6.3983798e+00   5.8957576e+03
 6.4030600e+00   5.9441519e+03
 6.4077401e+00   5.9377536e+03
 6.4124198e+00   5.9487881e+03
 6.4171000e+00   5.9655153e+03
 6.4217801e+00   5.9556541e+03
 6.4264598e+00   5.9727207e+03
 6.4311399e+00   5.9779841e+03
 6.4358201e+00   5.9930209e+03
 6.4404998e+00   6.0043987e+03
 6.4451799e+00   6.0378671e+03
 6.4498601e+00   6.0117022e+03
 6.4545398e+00   6.0490782e+03
 6.4592199e+00   6.0202882e+03
 6.4639001e+00   6.0743389e+03
 6.4685798e+00   6.0658259e+03
 6.4732599e+00   6.0799100e+03
 6.4779401e+00   6.0667152e+03
 6.4826198e+00   6.1088649e+03
 6.4872999e+00   6.0921904e+03
 6.4919801e+00   6.1635613e+03
 6.4966602e+00   6.1437210e+03
 6.5013399e+00   6.1458132e+03
 6.5060201e+00   6.1930638e+03
 6.5107002e+00   6.1706825e+03
 6.5153799e+00   6.2078810e+03
 6.5200601e+00   6.2113437e+03
 6.5247402e+00   6.2653962e+03
 6.5294199e+00   6.2139372e+03
 6.5341001e+00   6.2947744e+03
 6.5387802e+00   6.2508191e+03
 6.5434599e+00   6.3163265e+03
 6.5481400e+00   6.2805167e+03
 6.5528202e+00   6.3628086e+03
 6.5574999e+00   6.3213934e+03
 6.5621800e+00   6.3708625e+03
 6.5668602e+00   6.3256389e+03
 6.5715399e+00   6.4388385e+03
 6.5762200e+00   6.3582307e+03
 6.5809002e+00   6.4762649e+03
 6.5855799e+00   6.4071911e+03
 6.5902600e+00   6.4558008e+03
 6.5949402e+00   6.4739300e+03
 6.5996199e+00   6.5022331e+03
 6.6043000e+00   6.5495273e+03
 6.6089802e+00   6.5287526e+03
 6.6136599e+00   6.5675603e+03
 6.6183400e+00   6.5863692e+03
 6.6230202e+00   6.6309730e+03
 6.6276999e+00   6.6108687e+03
 6.6323800e+00   6.7121866e+03
 6.6370602e+00   6.6426482e+03
 6.6417398e+00   6.7222647e+03
 6.6464200e+00   6.7097238e+03
 6.6511002e+00   6.7995664e+03
 6.6557798e+00   6.7524857e+03
 6.6604600e+00   6.9022283e+03
 6.6651402e+00   6.8057917e+03
 6.6698198e+00   6.8993499e+03
 6.6745000e+00   6.8220725e+03
 6.6791801e+00   6.9421713e+03
 6.6838598e+00   6.9500916e+03
 6.6885400e+00   6.9568434e+03
 6.6932201e+00   7.0076375e+03
 6.6978998e+00   6.9872331e+03
 6.7025800e+00   7.0499531e+03
 6.7072601e+00   7.0429339e+03
 6.7119398e+00   7.0975674e+03
 6.7166200e+00   7.0962883e+03
 6.7213001e+00   7.1998286e+03
 6.7259798e+00   7.1024951e+03
 6.7306600e+00   7.2510145e+03
 6.7353401e+00   7.2423247e+03
 6.7400198e+00   7.3521804e+03
 6.7447000e+00   7.2747513e+03
 6.7493801e+00   7.3732293e+03
 6.7540598e+00   7.3037794e+03
 6.7587399e+00   7.5056228e+03
 6.7634201e+00   7.4379563e+03
 6.7680998e+00   7.5122362e+03
 6.7727799e+00   7.6042994e+03
 6.7774601e+00   7.5350910e+03
 6.7821398e+00   7.6813390e+03
 6.7868199e+00   7.6919422e+03
 6.7915001e+00   7.8138596e+03
 6.7961798e+00   7.7599978e+03
 6.8008599e+00   7.9319602e+03
 6.8055401e+00   7.8499683e+03
 6.8102198e+00   8.1042072e+03
 6.8148999e+00   8.1009747e+03
 6.8195801e+00   8.3580015e+03
 6.8242602e+00   8.3092025e+03
 6.8289399e+00   8.7340581e+03
 6.8336201e+00   8.6453027e+03
 6.8383002e+00   9.2509015e+03
 6.8429799e+00   9.9080196e+03
 6.8476601e+00   1.1622721e+04
 6.8523402e+00   1.3433487e+04
 6.8570199e+00   1.4624951e+04
 6.8617001e+00   2.3673424e+04
 6.8663802e+00   2.5976235e+04
 6.8710599e+00   3.3535454e+04
 6.8757401e+00   3.8286916e+04
 6.8804202e+00   2.8949065e+04
 6.8850999e+00   3.2718349e+04
 6.8897800e+00   2.2171843e+04
 6.8944602e+00   1.9535991e+04
 6.8991399e+00   2.0088545e+04
 6.9038200e+00   1.2261655e+04
 6.9085002e+00   1.1419193e+04
 6.9131799e+00   1.0462688e+04
 6.9178600e+00   1.0135960e+04
 6.9225402e+00   9.7507677e+03
 6.9272199e+00   9.7888635e+03
 6.9319000e+00   9.5157459e+03
 6.9365802e+00   9.3828117e+03
 6.9412599e+00   9.2650719e+03
 6.9459400e+00   9.1867926e+03
 6.9506202e+00   9.3310918e+03
 6.9552999e+00   9.2020006e+03
 6.9599800e+00   9.2666104e+03
 6.9646602e+00   9.0365032e+03
 6.9693398e+00   9.0520102e+03
 6.9740200e+00   9.0599611e+03
 6.9787002e+00   9.1898281e+03
 6.9833798e+00   8.9811553e+03
 6.9880600e+00   9.1855459e+03
 6.9927402e+00   8.9377994e+03
 6.9974198e+00   9.0818168e+03
 7.0021000e+00   8.9334673e+03
 7.0067801e+00   9.1043669e+03
 7.0114598e+00   8.9823093e+03
 7.0161400e+00   8.9738710e+03
 7.0208201e+00   8.8579160e+03
 7.0254998e+00   8.8418043e+03
 7.0301800e+00   8.7554445e+03
 7.0348601e+00   8.6968760e+03
 7.0395398e+00   8.6188300e+03
 7.0442200e+00   8.4041963e+03
 7.0489001e+00   8.4094924e+03
 7.0535798e+00   8.2344820e+03
 7.0582600e+00   8.2132695e+03
 7.0629401e+00   8.1331853e+03
 7.0676198e+00   8.0377794e+03
 7.0723000e+00   7.8934100e+03
 7.0769801e+00   7.7994187e+03
 7.0816598e+00   7.6352230e+03
 7.0863400e+00   7.6903566e+03
 7.0910201e+00   7.4235199e+03
 7.0956998e+00   7.4663905e+03
 7.1003799e+00   7.3465536e+03
 7.1050601e+00   7.2797024e+03
 7.1097398e+00   7.2020449e+03
 7.1144199e+00   7.2147189e+03
 7.1191001e+00   7.1459367e+03
 7.1237798e+00   7.1327815e+03
 7.1284599e+00   7.0799524e+03
 7.1331401e+00   7.0253689e+03
 7.1378198e+00   7.0441247e+03
 7.1424999e+00   6.9972149e+03
 7.1471801e+00   6.9897622e+03
 7.1518602e+00   6.9586296e+03
 7.1565399e+00   6.9512317e+03
 7.1612201e+00   6.9099946e+03
 7.1659002e+00   6.9281191e+03
 7.1705799e+00   6.8472831e+03
 7.1752601e+00   6.9343652e+03
 7.1799402e+00   6.8165006e+03
 7.1846199e+00   6.8633000e+03
 7.1893001e+00   6.8063117e+03
 7.1939802e+00   6.8418257e+03
 7.1986599e+00   6.7883602e+03
 7.2033401e+00   6.8022529e+03
 7.2080202e+00   6.7693263e+03
 7.2126999e+00   6.7867036e+03
 7.2173800e+00   6.7533300e+03
 7.2220602e+00   6.7462000e+03
 7.2267399e+00   6.7516261e+03
 7.2314200e+00   6.7215960e+03
 7.2361002e+00   6.7447407e+03
 7.2407799e+00   6.7135405e+03
 7.2454600e+00   6.7347984e+03
 7.2501402e+00   6.7490789e+03
 7.2548199e+00   6.7555441e+03
 7.2595000e+00   6.7185267e+03
 7.2641802e+00   6.7743107e+03
 7.2688599e+00   6.7176951e+03
 7.2735400e+00   6.7653176e+03
 7.2782202e+00   6.7173496e+03
 7.2828999e+00   6.7457455e+03
 7.2875800e+00   6.7295450e+03
 7.2922602e+00   6.7075483e+03
 7.2969398e+00   6.6862063e+03
 7.3016200e+00   6.7072144e+03
 7.3063002e+00   6.6904955e+03
 7.3109798e+00   6.6933469e+03
 7.3156600e+00   6.7003341e+03
 7.3203402e+00   6.7078576e+03
 7.3250198e+00   6.7311243e+03
 7.3297000e+00   6.7153412e+03
 7.3343801e+00   6.7356674e+03
 7.3390598e+00   6.7522325e+03
 7.3437400e+00   6.7808222e+03
 7.3484201e+00   6.7712153e+03
 7.3530998e+00   6.7958296e+03
 7.3577800e+00   6.7931389e+03
 7.3624601e+00   6.8154371e+03
 7.3671398e+00   6.7962823e+03
 7.3718200e+00   6.8313242e+03
 7.3765001e+00   6.8249199e+03
 7.3811798e+00   6.8116215e+03
 7.3858600e+00   6.8215195e+03
 7.3905401e+00   6.8135727e+03
 7.3952198e+00   6.8121172e+03
 7.3999000e+00   6.8181151e+03
 7.4045801e+00   6.8184868e+03
 7.4092598e+00   6.8230211e+03
 7.4139400e+00   6.8450369e+03
 7.4186201e+00   6.8168353e+03
 7.4232998e+00   6.8307842e+03
 7.4279799e+00   6.8353337e+03
 7.4326601e+00   6.8423041e+03
 7.4373398e+00   6.8546499e+03
 7.4420199e+00   6.8691317e+03
 7.4467001e+00   6.8692889e+03
 7.4513798e+00   6.8962760e+03
 7.4560599e+00   6.9014295e+03
 7.4607401e+00   6.9304995e+03
 7.4654198e+00   6.9532940e+03
 7.4700999e+00   6.9607911e+03
 7.4747801e+00   7.0006188e+03
 7.4794598e+00   7.0210103e+03
 7.4841399e+00   7.0590031e+03
 7.4888201e+00   7.0906971e+03
 7.4935002e+00   7.1166623e+03
 7.4981799e+00   7.1600355e+03
 7.5028601e+00   7.2311271e+03
 7.5075402e+00   7.2606905e+03
 7.5122199e+00   7.3433053e+03
 7.5169001e+00   7.3708394e+03
 7.5215802e+00   7.4232446e+03
 7.5262599e+00   7.5108213e+03
 7.5309401e+00   7.5490875e+03
 7.5356202e+00   7.6251820e+03
 7.5402999e+00   7.6705064e+03
 7.5449800e+00   7.7292974e+03
 7.5496602e+00   7.7600415e+03
 7.5543399e+00   7.8193097e+03
 7.5590200e+00   7.8387015e+03
 7.5637002e+00   7.8959409e+03
 7.5683799e+00   7.8898456e+03
 7.5730600e+00   7.9237399e+03
 7.5777402e+00   7.9265406e+03
 7.5824199e+00   7.9343723e+03
 7.5871000e+00   7.9027058e+03
 7.5917802e+00   7.9000275e+03
 7.5964599e+00   7.8533801e+03
 7.6011400e+00   7.8099243e+03
 7.6058202e+00   7.7186359e+03
 7.6104999e+00   7.6315228e+03
 7.6151800e+00   7.5159728e+03
 7.6198602e+00   7.3692391e+03
 7.6245399e+00   7.2682691e+03
 7.6292200e+00   7.1052662e+03
 7.6339002e+00   7.0142208e+03
 7.6385798e+00   6.8677137e+03
 7.6432600e+00   6.8122321e+03
 7.6479402e+00   6.6844983e+03
 7.6526198e+00   6.6459582e+03
 7.6573000e+00   6.5491081e+03
 7.6619802e+00   6.5354575e+03
 7.6666598e+00   6.4667224e+03
 7.6713400e+00   6.4699865e+03
 7.6760201e+00   6.3933138e+03
 7.6806998e+00   6.4184867e+03
 7.6853800e+00   6.3699879e+03
 7.6900601e+00   6.3721159e+03
 7.6947398e+00   6.3507775e+03
 7.6994200e+00   6.3264398e+03
 7.7041001e+00   6.3395459e+03
 7.7087798e+00   6.3190526e+03
 7.7134600e+00   6.3198438e+03
 7.7181401e+00   6.2808142e+03
 7.7228198e+00   6.3408020e+03
 7.7275000e+00   6.2794197e+03
 7.7321801e+00   6.3091173e+03
 7.7368598e+00   6.2722771e+03
 7.7415400e+00   6.3101583e+03
 7.7462201e+00   6.2736571e+03
 7.7508998e+00   6.3234217e+03
 7.7555799e+00   6.2642928e+03
 7.7602601e+00   6.3423587e+03
 7.7649398e+00   6.2502484e+03
 7.7696199e+00   6.3143005e+03
 7.7743001e+00   6.3021172e+03
 7.7789798e+00   6.3158772e+03
 7.7836599e+00   6.3241986e+03
 7.7883401e+00   6.3043042e+03
 7.7930198e+00   6.3289826e+03
 7.7976999e+00   6.3034473e+03
 7.8023801e+00   6.3313452e+03
 7.8070598e+00   6.3188485e+03
 7.8117399e+00   6.3499898e+03
 7.8164201e+00   6.3040781e+03
 7.8211002e+00   6.3765949e+03
 7.8257799e+00   6.3030394e+03
 7.8304601e+00   6.3969808e+03
 7.8351402e+00   6.3347632e+03
 7.8398199e+00   6.4208230e+03
 7.8445001e+00   6.3209182e+03
 7.8491802e+00   6.4334472e+03
 7.8538599e+00   6.3553273e+03
 7.8585401e+00   6.5120936e+03
 7.8632202e+00   6.4091558e+03
 7.8678999e+00   6.4642610e+03
 7.8725801e+00   6.4751028e+03
 7.8772602e+00   6.4992664e+03
 7.8819399e+00   6.5469288e+03
 7.8866200e+00   6.6513745e+03
 7.8913002e+00   6.6754085e+03
 7.8959799e+00   6.5535021e+03
 7.9006600e+00   7.2107239e+03
 7.9053402e+00   6.6993875e+03
 7.9100199e+00   8.7131909e+03
 7.9147000e+00   7.8372947e+03
 7.9193802e+00   8.9449382e+03
 7.9240599e+00   9.6905444e+03
 7.9287400e+00   1.3835351e+04
 7.9334202e+00   9.6328163e+03
 7.9380999e+00   2.5508997e+04
 7.9427800e+00   1.5353303e+04
 7.9474602e+00   2.4426474e+04
 7.9521399e+00   1.3882812e+04
 7.9568200e+00   1.5007278e+04
 7.9615002e+00   1.0893117e+04
 7.9661798e+00   8.5486710e+03
 7.9708600e+00   7.7735598e+03
 7.9755402e+00   7.0628063e+03
 7.9802198e+00   6.9745933e+03
 7.9849000e+00   6.6652081e+03
 7.9895802e+00   6.7116324e+03
 7.9942598e+00   6.4730378e+03
 7.9989400e+00   6.4856638e+03
 8.0036201e+00   6.3234701e+03
 8.0082998e+00   6.3664097e+03
 8.0129805e+00   6.2722429e+03
 8.0176601e+00   6.3809002e+03
 8.0223398e+00   6.1983649e+03
 8.0270205e+00   6.2803090e+03
 8.0317001e+00   6.1402142e+03
 8.0363798e+00   6.2524377e+03
 8.0410604e+00   6.2059843e+03
 8.0457401e+00   6.2033746e+03
 8.0504198e+00   6.1886788e+03
 8.0551004e+00   6.1516088e+03
 8.0597801e+00   6.1932127e+03
 8.0644598e+00   6.1691862e+03
 8.0691404e+00   6.2966674e+03
 8.0738201e+00   6.2468727e+03
 8.0784998e+00   6.3349021e+03
 8.0831804e+00   6.3139963e+03
 8.0878601e+00   6.4502546e+03
 8.0925398e+00   6.4218555e+03
 8.0972204e+00   6.5607779e+03
 8.1019001e+00   6.5227276e+03
 8.1065798e+00   6.6306569e+03
 8.1112604e+00   6.5757602e+03
 8.1159401e+00   6.6721610e+03
 8.1206198e+00   6.6191015e+03
 8.1253004e+00   6.6675023e+03
 8.1299801e+00   6.6501625e+03
 8.1346598e+00   6.6395868e+03
 8.1393404e+00   6.6407937e+03
 8.1440201e+00   6.6118484e+03
 8.1486998e+00   6.6789385e+03
 8.1533804e+00   6.6187968e+03
 8.1580601e+00   6.7007869e+03
 8.1627398e+00   6.6635078e+03
 8.1674204e+00   6.7547096e+03
 8.1721001e+00   6.7335331e+03
 8.1767797e+00   6.8401707e+03
 8.1814604e+00   6.8270990e+03
 8.1861401e+00   6.9552395e+03
 8.1908197e+00   6.9658981e+03
 8.1955004e+00   7.0870680e+03
 8.2001801e+00   7.1392424e+03
 8.2048597e+00   7.2414089e+03
 8.2095404e+00   7.3106895e+03
 8.2142200e+00   7.3900436e+03
 8.2188997e+00   7.4686868e+03
 8.2235804e+00   7.5082917e+03
 8.2282600e+00   7.5779255e+03
 8.2329397e+00   7.5693799e+03
 8.2376204e+00   7.5882872e+03
 8.2423000e+00   7.5466005e+03
 8.2469797e+00   7.5218044e+03
 8.2516603e+00   7.4034759e+03
 8.2563400e+00   7.3650633e+03
 8.2610197e+00   7.2248153e+03
 8.2657003e+00   7.1256623e+03
 8.2703800e+00   6.9850481e+03
 8.2750597e+00   6.9056382e+03
 8.2797403e+00   6.7584102e+03
 8.2844200e+00   6.6529035e+03
 8.2890997e+00   6.5254976e+03
 8.2937803e+00   6.3962252e+03
 8.2984600e+00   6.3196840e+03
 8.3031397e+00   6.2130932e+03
 8.3078203e+00   6.1282778e+03
 8.3125000e+00   6.0258657e+03
 8.3171797e+00   5.9576235e+03
 8.3218603e+00   5.8683824e+03
 8.3265400e+00   5.8353908e+03
 8.3312197e+00   5.7701512e+03
 8.3359003e+00   5.7369426e+03
 8.3405800e+00   5.6815868e+03
 8.3452597e+00   5.6682484e+03
 8.3499403e+00   5.6361452e+03
 8.3546200e+00   5.6699562e+03
 8.3592997e+00   5.6552682e+03
 8.3639803e+00   5.7241613e+03
 8.3686600e+00   5.7962828e+03
 8.3733397e+00   5.9583831e+03
 8.3780203e+00   6.2041393e+03
 8.3827000e+00   6.6143830e+03
 8.3873796e+00   7.0637906e+03
 8.3920603e+00   7.7776457e+03
 8.3967400e+00   8.5692180e+03
 8.4014196e+00   9.2443650e+03
 8.4061003e+00   9.8203132e+03
 8.4107800e+00   9.7500136e+03
 8.4154596e+00   9.2015168e+03
 8.4201403e+00   8.6962579e+03
 8.4248199e+00   7.8425600e+03
 8.4294996e+00   7.2581536e+03
 8.4341803e+00   6.8176159e+03
 8.4388599e+00   6.5513020e+03
 8.4435396e+00   6.3907891e+03
 8.4482203e+00   6.2423211e+03
 8.4528999e+00   6.2086150e+03
 8.4575796e+00   6.2091183e+03
 8.4622602e+00   6.2100870e+03
 8.4669399e+00   6.2378234e+03
 8.4716196e+00   6.2652872e+03
 8.4763002e+00   6.2862303e+03
 8.4809799e+00   6.3117297e+03
 8.4856596e+00   6.3532663e+03
 8.4903402e+00   6.3399385e+03
 8.4950199e+00   6.3788143e+03
 8.4996996e+00   6.3861068e+03
 8.5043802e+00   6.3803967e+03
 8.5090599e+00   6.3705796e+03
 8.5137396e+00   6.3787110e+03
 8.5184202e+00   6.3465009e+03
 8.5230999e+00   6.3679415e+03
 8.5277796e+00   6.3441104e+03
 8.5324602e+00   6.3353138e+03
 8.5371399e+00   6.2989412e+03
 8.5418196e+00   6.2791332e+03
 8.5465002e+00   6.2548983e+03
 8.5511799e+00   6.2351721e+03
 8.5558596e+00   6.2041102e+03
 8.5605402e+00   6.1648038e+03
 8.5652199e+00   6.1512535e+03
 8.5698996e+00   6.0711616e+03
 8.5745802e+00   6.0574938e+03
 8.5792599e+00   5.9958806e+03
 8.5839396e+00   5.9672737e+03
 8.5886202e+00   5.9051643e+03
 8.5932999e+00   5.8818070e+03
 8.5979795e+00   5.8132534e+03
 8.6026602e+00   5.7988707e+03
 8.6073399e+00   5.7570872e+03
 8.6120195e+00   5.7189679e+03
 8.6167002e+00   5.6912320e+03
 8.6213799e+00   5.6392552e+03
 8.6260595e+00   5.6279660e+03
 8.6307402e+00   5.5789872e+03
 8.6354198e+00   5.5792721e+03
 8.6400995e+00   5.5671392e+03
 8.6447802e+00   5.5449575e+03
 8.6494598e+00   5.5291938e+03
 8.6541405e+00   5.5360032e+03
 8.6588202e+00   5.5208443e+03
 8.6634998e+00   5.5139558e+03
 8.6681805e+00   5.5084826e+03
 8.6728601e+00   5.5058778e+03
 8.6775398e+00   5.5243238e+03
 8.6822205e+00   5.5176397e+03
 8.6869001e+00   5.5203525e+03
 8.6915798e+00   5.5284781e+03
 8.6962605e+00   5.5327393e+03
 8.7009401e+00   5.5332264e+03
 8.7056198e+00   5.5492277e+03
 8.7103004e+00   5.5424524e+03
 8.7149801e+00   5.5481545e+03
 8.7196598e+00   5.5570388e+03
 8.7243404e+00   5.5534123e+03
 8.7290201e+00   5.5528178e+03
 8.7336998e+00   5.5590973e+03
 8.7383804e+00   5.5661015e+03
 8.7430601e+00   5.5785874e+03
 8.7477398e+00   5.5692804e+03
 8.7524204e+00   5.5753896e+03
 8.7571001e+00   5.5719815e+03
 8.7617798e+00   5.5781932e+03
 8.7664604e+00   5.5671678e+03
 8.7711401e+00   5.5607437e+03
 8.7758198e+00   5.5550000e+03
 8.7805004e+00   5.5578464e+03
 8.7851801e+00   5.5511861e+03
 8.7898598e+00   5.5431585e+03
 8.7945404e+00   5.5368638e+03
 8.7992201e+00   5.5066409e+03
 8.8038998e+00   5.5175514e+03
 8.8085804e+00   5.5084493e+03
 8.8132601e+00   5.5011705e+03
 8.8179398e+00   5.5009533e+03
 8.8226204e+00   5.4864219e+03
 8.8273001e+00   5.4741420e+03
 8.8319798e+00   5.5291208e+03
 8.8366604e+00   5.5258004e+03
 8.8413401e+00   5.6791476e+03
 8.8460197e+00   5.7515236e+03
 8.8507004e+00   6.2198105e+03
 8.8553801e+00   6.3146920e+03
 8.8600597e+00   6.8235914e+03
 8.8647404e+00   6.4049783e+03
 8.8694201e+00   7.3857759e+03
 8.8740997e+00   6.8044532e+03
 8.8787804e+00   6.3516862e+03
 8.8834600e+00   6.5564913e+03
 8.8881397e+00   5.9683407e+03
 8.8928204e+00   5.5712257e+03
 8.8975000e+00   5.3992598e+03
 8.9021797e+00   5.2598420e+03
 8.9068604e+00   5.1404465e+03
 8.9115400e+00   5.1302136e+03
 8.9162197e+00   5.0623600e+03
 8.9209003e+00   5.0722940e+03
 8.9255800e+00   5.0482322e+03
 8.9302597e+00   5.0380211e+03
 8.9349403e+00   5.0219188e+03
 8.9396200e+00   5.0089693e+03
 8.9442997e+00   5.0305814e+03
 8.9489803e+00   5.0008283e+03
 8.9536600e+00   5.0261349e+03
 8.9583397e+00   4.9944298e+03
 8.9630203e+00   5.0142063e+03
 8.9677000e+00   5.0139428e+03
 8.9723797e+00   5.0138135e+03
 8.9770603e+00   5.0041251e+03
 8.9817400e+00   5.0148355e+03
 8.9864197e+00   4.9935239e+03
 8.9911003e+00   5.0003854e+03
 8.9957800e+00   5.0026373e+03
 9.0004597e+00   4.9980240e+03
 9.0051403e+00   4.9955952e+03
 9.0098200e+00   4.9849271e+03
 9.0144997e+00   4.9876804e+03
 9.0191803e+00   4.9684732e+03
 9.0238600e+00   4.9604536e+03
 9.0285397e+00   4.9425059e+03
 9.0332203e+00   4.9349885e+03
 9.0379000e+00   4.9154524e+03
 9.0425797e+00   4.9204633e+03
 9.0472603e+00   4.9080624e+03
 9.0519400e+00   4.9061863e+03
 9.0566196e+00   4.8927728e+03
 9.0613003e+00   4.8866709e+03
 9.0659800e+00   4.8895616e+03
 9.0706596e+00   4.8936994e+03
 9.0753403e+00   4.8927630e+03
 9.0800200e+00   4.8959023e+03
 9.0846996e+00   4.8792351e+03
 9.0893803e+00   4.8812575e+03
 9.0940599e+00   4.8833044e+03
 9.0987396e+00   4.9007224e+03
 9.1034203e+00   4.8823005e+03
 9.1080999e+00   4.8927914e+03
 9.1127796e+00   4.8959734e+03
 9.1174603e+00   4.9141626e+03
 9.1221399e+00   4.8958906e+03
 9.1268196e+00   4.9011285e+03
 9.1315002e+00   4.9185097e+03
 9.1361799e+00   4.8988132e+03
 9.1408596e+00   4.9378668e+03
 9.1455402e+00   4.9167354e+03
 9.1502199e+00   4.9355474e+03
 9.1548996e+00   4.9447947e+03
 9.1595802e+00   4.9562653e+03
 9.1642599e+00   4.9492219e+03
 9.1689396e+00   4.9753179e+03
 9.1736202e+00   4.9702988e+03
 9.1782999e+00   4.9891141e+03
 9.1829796e+00   5.0050860e+03
 9.1876602e+00   5.0022811e+03
 9.1923399e+00   5.0272344e+03
 9.1970196e+00   5.0400371e+03
 9.2017002e+00   5.0670509e+03
 9.2063799e+00   5.0714325e+03
 9.2110596e+00   5.0974721e+03
 9.2157402e+00   5.1349485e+03
 9.2204199e+00   5.1594957e+03
 9.2250996e+00   5.1807379e+03
 9.2297802e+00   5.2168088e+03
 9.2344599e+00   5.2446409e+03
 9.2391396e+00   5.2896705e+03
 9.2438202e+00   5.3247180e+03
 9.2484999e+00   5.3793444e+03
 9.2531796e+00   5.4233258e+03
 9.2578602e+00   5.4593331e+03
 9.2625399e+00   5.5159282e+03
 9.2672195e+00   5.5575138e+03
 9.2719002e+00   5.5970542e+03
 9.2765799e+00   5.6371583e+03
 9.2812595e+00   5.6692475e+03
 9.2859402e+00   5.6815701e+03
 9.2906199e+00   5.7057317e+03
 9.2952995e+00   5.7098631e+03
 9.2999802e+00   5.7311185e+03
 9.3046598e+00   5.7199899e+03
 9.3093395e+00   5.7298400e+03
 9.3140202e+00   5.7252053e+03
 9.3186998e+00   5.7197217e+03
 9.3233805e+00   5.7067045e+03
 9.3280602e+00   5.7148248e+03
 9.3327398e+00   5.6926571e+03
 9.3374205e+00   5.6872384e+03
 9.3421001e+00   5.6739006e+03
 9.3467798e+00   5.6491912e+03
 9.3514605e+00   5.6509831e+03
 9.3561401e+00   5.6228965e+03
 9.3608198e+00   5.6069273e+03
 9.3655005e+00   5.6028872e+03
 9.3701801e+00   5.5687168e+03
 9.3748598e+00   5.5451330e+03
 9.3795404e+00   5.5334044e+03
 9.3842201e+00   5.5014558e+03
 9.3888998e+00   5.4885401e+03
 9.3935804e+00   5.4571582e+03
 9.3982601e+00   5.4346311e+03
 9.4029398e+00   5.4136229e+03
 9.4076204e+00   5.3937530e+03
 9.4123001e+00   5.3854940e+03
 9.4169798e+00   5.3558225e+03
 9.4216604e+00   5.3441702e+03
 9.4263401e+00   5.3261654e+03
 9.4310198e+00   5.3060625e+03
 9.4357004e+00   5.2946037e+03
 9.4403801e+00   5.3045695e+03
 9.4450598e+00   5.2858940e+03
 9.4497404e+00   5.2902303e+03
 9.4544201e+00   5.2869011e+03
 9.4590998e+00   5.2861389e+03
 9.4637804e+00   5.2984294e+03
 9.4684601e+00   5.3084784e+03
 9.4731398e+00   5.3147621e+03
 9.4778204e+00   5.3337525e+03
 9.4825001e+00   5.3373598e+03
 9.4871798e+00   5.3421026e+03
 9.4918604e+00   5.3460747e+03
 9.4965401e+00   5.3495414e+03
 9.5012197e+00   5.3572117e+03
 9.5059004e+00   5.3415524e+03
 9.5105801e+00   5.3372404e+03
 9.5152597e+00   5.3422256e+03
 9.5199404e+00   5.3154511e+03
 9.5246201e+00   5.3141149e+03
 9.5292997e+00   5.3165164e+03
 9.5339804e+00   5.3001626e+03
 9.5386600e+00   5.3012291e+03
 9.5433397e+00   5.2956726e+03
 9.5480204e+00   5.2927776e+03
 9.5527000e+00   5.3036415e+03
 9.5573797e+00   5.2970205e+03
 9.5620604e+00   5.2949735e+03
 9.5667400e+00   5.2919516e+03
 9.5714197e+00   5.2885838e+03
 9.5761003e+00   5.2959667e+03
 9.5807800e+00   5.2888392e+03
 9.5854597e+00   5.2904177e+03
 9.5901403e+00   5.3020320e+03
 9.5948200e+00   5.2881505e+03
 9.5994997e+00   5.2901996e+03
 9.6041803e+00   5.2856333e+03
 9.6088600e+00   5.2915495e+03
 9.6135397e+00   5.2826754e+03
 9.6182203e+00   5.2731137e+03
 9.6229000e+00   5.2622161e+03
 9.6275797e+00   5.2533392e+03
 9.6322603e+00   5.2480724e+03
 9.6369400e+00   5.2396026e+03
 9.6416197e+00   5.2287542e+03
 9.6463003e+00   5.2135692e+03
 9.6509800e+00   5.2038602e+03
 9.6556597e+00   5.1893594e+03
 9.6603403e+00   5.1787401e+03
 9.6650200e+00   5.1803326e+03
 9.6696997e+00   5.1647336e+03
 9.6743803e+00   5.1756117e+03
 9.6790600e+00   5.1837342e+03
 9.6837397e+00   5.2051656e+03
 9.6884203e+00   5.2735895e+03
 9.6931000e+00   5.2857563e+03
 9.6977797e+00   5.3434148e+03
 9.7024603e+00   5.7491931e+03
 9.7071400e+00   5.9027405e+03
 9.7118196e+00   5.7921510e+03
 9.7165003e+00   6.2297464e+03
 9.7211800e+00   6.0606969e+03
 9.7258596e+00   5.8356433e+03
 9.7305403e+00   5.8932558e+03
 9.7352200e+00   5.5383862e+03
 9.7398996e+00   5.4978833e+03
 9.7445803e+00   5.3218154e+03
 9.7492599e+00   5.1984345e+03
 9.7539396e+00   5.2565402e+03
 9.7586203e+00   5.1205330e+03
 9.7632999e+00   5.1129911e+03
 9.7679796e+00   5.1143536e+03
 9.7726603e+00   5.0993065e+03
 9.7773399e+00   5.1250294e+03
 9.7820196e+00   5.1199580e+03
 9.7867002e+00   5.1628498e+03
 9.7913799e+00   5.1888760e+03
 9.7960596e+00   5.2234573e+03
 9.8007402e+00   5.2722641e+03
 9.8054199e+00   5.3381452e+03
 9.8100996e+00   5.4126120e+03
 9.8147802e+00   5.5120495e+03
 9.8194599e+00   5.6705713e+03
 9.8241396e+00   5.8476791e+03
 9.8288202e+00   6.0291173e+03
 9.8334999e+00   6.6446805e+03
 9.8381796e+00   7.1882934e+03
 9.8428602e+00   7.9849740e+03
 9.8475399e+00   9.0742475e+03
 9.8522196e+00   1.0042992e+04
 9.8569002e+00   1.1373304e+04
 9.8615799e+00   1.1872241e+04
 9.8662596e+00   1.2132350e+04
 9.8709402e+00   1.1338600e+04
 9.8756199e+00   1.0327922e+04
 9.8802996e+00   9.1539793e+03
 9.8849802e+00   7.9381447e+03
 9.8896599e+00   7.2077902e+03
 9.8943396e+00   6.7482973e+03
 9.8990202e+00   6.3373638e+03
 9.9036999e+00   6.0499089e+03
 9.9083796e+00   5.8485156e+03
 9.9130602e+00   5.7276663e+03
 9.9177399e+00   5.6490926e+03
 9.9224195e+00   5.6013764e+03
 9.9271002e+00   5.5702285e+03
 9.9317799e+00   5.5392039e+03
 9.9364595e+00   5.5213198e+03
 9.9411402e+00   5.5010862e+03
 9.9458199e+00   5.4804401e+03
 9.9504995e+00   5.4625079e+03
 9.9551802e+00   5.4503629e+03
 9.9598598e+00   5.4420145e+03
 9.9645395e+00   5.4397844e+03
 9.9692202e+00   5.4186999e+03
 9.9738998e+00   5.4141488e+03
 9.9785805e+00   5.3933890e+03
 9.9832602e+00   5.3870890e+03
 9.9879398e+00   5.3841818e+03
 9.9926205e+00   5.3710295e+03
 9.9973001e+00   5.3780698e+03
 1.0001980e+01   5.3636095e+03
 1.0006660e+01   5.3469197e+03
 1.0011340e+01   5.3276440e+03
 1.0016020e+01   5.3106567e+03
 1.0020700e+01   5.2966781e+03
 1.0025380e+01   5.2837887e+03
 1.0030060e+01   5.2609430e+03
 1.0034740e+01   5.2413253e+03
 1.0039420e+01   5.2281171e+03
 1.0044100e+01   5.2114844e+03
 1.0048780e+01   5.1977770e+03
 1.0053460e+01   5.1887744e+03
 1.0058140e+01   5.1763036e+03
 1.0062820e+01   5.1563342e+03
 1.0067500e+01   5.1563785e+03
 1.0072180e+01   5.1318810e+03
 1.0076860e+01   5.1521379e+03
 1.0081540e+01   5.1343678e+03
 1.0086220e+01   5.1347906e+03
 1.0090900e+01   5.1307016e+03
 1.0095580e+01   5.1321444e+03
 1.0100260e+01   5.1233420e+03
 1.0104940e+01   5.1272128e+03
 1.0109620e+01   5.1386342e+03
 1.0114300e+01   5.1282244e+03
 1.0118980e+01   5.1399291e+03
 1.0123660e+01   5.1343801e+03
 1.0128340e+01   5.1419267e+03
 1.0133020e+01   5.1421458e+03
 1.0137700e+01   5.1566605e+03
 1.0142380e+01   5.1537105e+03
 1.0147060e+01   5.1622463e+03
 1.0151740e+01   5.1573980e+03
 1.0156420e+01   5.1655284e+03
 1.0161100e+01   5.1690540e+03
 1.0165780e+01   5.1771872e+03
 1.0170460e+01   5.1891652e+03
 1.0175140e+01   5.1915464e+03
 1.0179820e+01   5.1882651e+03
 1.0184500e+01   5.1798435e+03
 1.0189180e+01   5.1713382e+03
 1.0193860e+01   5.1850572e+03
 1.0198540e+01   5.1871447e+03
 1.0203220e+01   5.1686486e+03
 1.0207900e+01   5.1938863e+03
 1.0212580e+01   5.1812109e+03
 1.0217260e+01   5.1908090e+03
 1.0221940e+01   5.1894131e+03
 1.0226620e+01   5.1911599e+03
 1.0231300e+01   5.1959998e+03
 1.0235980e+01   5.2036582e+03
 1.0240660e+01   5.2040908e+03
 1.0245340e+01   5.2129194e+03
 1.0250020e+01   5.2080045e+03
 1.0254700e+01   5.2572259e+03
 1.0259380e+01   5.2814254e+03
 1.0264060e+01   5.3480173e+03
 1.0268740e+01   5.4825421e+03
 1.0273420e+01   5.5191493e+03
 1.0278100e+01   5.4135814e+03
 1.0282780e+01   5.4033081e+03
 1.0287460e+01   5.5391891e+03
 1.0292140e+01   5.6863586e+03
 1.0296820e+01   5.7417182e+03
 1.0301500e+01   5.8363997e+03
 1.0306180e+01   5.8515909e+03
 1.0310860e+01   5.7538167e+03
 1.0315540e+01   5.6799412e+03
 1.0320220e+01   5.5560759e+03
 1.0324900e+01   5.6587525e+03
 1.0329580e+01   5.7532281e+03
 1.0334260e+01   5.5215060e+03
 1.0338940e+01   5.3578270e+03
 1.0343620e+01   5.2932977e+03
 1.0348300e+01   5.2226394e+03
 1.0352980e+01   5.1953579e+03
 1.0357660e+01   5.1525760e+03
 1.0362340e+01   5.1172061e+03
 1.0367020e+01   5.1429199e+03
 1.0371700e+01   5.1009710e+03
 1.0376380e+01   5.1245299e+03
 1.0381060e+01   5.1305031e+03
 1.0385740e+01   5.1150515e+03
 1.0390420e+01   5.1238692e+03
 1.0395100e+01   5.1134337e+03
 1.0399780e+01   5.1066773e+03
 1.0404460e+01   5.1393877e+03
 1.0409140e+01   5.1172346e+03
 1.0413820e+01   5.1174214e+03
 1.0418500e+01   5.1462660e+03
 1.0423180e+01   5.1306101e+03
 1.0427860e+01   5.1441929e+03
 1.0432540e+01   5.1263963e+03
 1.0437220e+01   5.1325505e+03
 1.0441900e+01   5.1768586e+03
 1.0446580e+01   5.1723552e+03
 1.0451260e+01   5.1783852e+03
 1.0455940e+01   5.1881816e+03
 1.0460620e+01   5.2794517e+03
 1.0465300e+01   5.2269351e+03
 1.0469980e+01   5.3174997e+03
 1.0474660e+01   5.7407242e+03
 1.0479340e+01   5.4163795e+03
 1.0484020e+01   5.9082692e+03
 1.0488700e+01   5.5791628e+03
 1.0493380e+01   5.7755477e+03
 1.0498060e+01   5.9498017e+03
 1.0502740e+01   5.9103613e+03
 1.0507420e+01   5.8797455e+03
 1.0512100e+01   5.8938523e+03
 1.0516780e+01   5.8207964e+03
 1.0521460e+01   5.5221694e+03
 1.0526140e+01   5.4983964e+03
 1.0530820e+01   5.5175974e+03
 1.0535500e+01   5.3028131e+03
 1.0540180e+01   5.2838669e+03
 1.0544860e+01   5.2039858e+03
 1.0549540e+01   5.1758285e+03
 1.0554220e+01   5.1972980e+03
 1.0558900e+01   5.1590584e+03
 1.0563580e+01   5.1676521e+03
 1.0568260e+01   5.1569430e+03
 1.0572940e+01   5.1186745e+03
 1.0577620e+01   5.1401291e+03
 1.0582300e+01   5.0927063e+03
 1.0586980e+01   5.1085018e+03
 1.0591660e+01   5.1017255e+03
 1.0596340e+01   5.0775052e+03
 1.0601020e+01   5.0912307e+03
 1.0605700e+01   5.0778615e+03
 1.0610380e+01   5.0544132e+03
 1.0615060e+01   5.0592522e+03
 1.0619740e+01   5.0507454e+03
 1.0624420e+01   5.0445190e+03
 1.0629100e+01   5.0611576e+03
 1.0633780e+01   5.0395086e+03
 1.0638460e+01   5.0440813e+03
 1.0643140e+01   5.0305577e+03
 1.0647820e+01   5.0207283e+03
 1.0652500e+01   5.0335400e+03
 1.0657180e+01   5.0274510e+03
 1.0661860e+01   5.0169831e+03
 1.0666540e+01   5.0221595e+03
 1.0671220e+01   5.0092634e+03
 1.0675900e+01   5.0049069e+03
 1.0680580e+01   5.0072695e+03
 1.0685260e+01   4.9945699e+03
 1.0689940e+01   5.0254243e+03
 1.0694620e+01   5.0018387e+03
 1.0699300e+01   5.0173006e+03
 1.0703980e+01   5.0170843e+03
 1.0708660e+01   5.0207618e+03
 1.0713340e+01   5.0205411e+03
 1.0718020e+01   5.0408093e+03
 1.0722700e+01   5.0273349e+03
 1.0727380e+01   5.0537697e+03
 1.0732060e+01   5.0467382e+03
 1.0736740e+01   5.0566445e+03
 1.0741420e+01   5.0513597e+03
 1.0746100e+01   5.0598240e+03
 1.0750780e+01   5.0723274e+03
 1.0755460e+01   5.0704555e+03
 1.0760140e+01   5.0619589e+03
 1.0764820e+01   5.0623651e+03
 1.0769500e+01   5.0549413e+03
 1.0774180e+01   5.0589300e+03
 1.0778860e+01   5.0637632e+03
 1.0783540e+01   5.0441787e+03
 1.0788220e+01   5.0635706e+03
 1.0792900e+01   5.0300694e+03
 1.0797580e+01   5.0403117e+03
 1.0802260e+01   5.0287792e+03
 1.0806940e+01   5.0163138e+03
 1.0811620e+01   5.0175073e+03
 1.0816300e+01   5.0114786e+03
 1.0820980e+01   5.0179925e+03
 1.0825660e+01   4.9990423e+03
 1.0830340e+01   4.9952899e+03
 1.0835020e+01   4.9910849e+03
 1.0839700e+01   4.9902949e+03
 1.0844380e+01   4.9873138e+03
 1.0849060e+01   4.9798755e+03
 1.0853740e+01   4.9691617e+03
 1.0858420e+01   4.9763951e+03
 1.0863100e+01   4.9715961e+03
 1.0867780e+01   4.9642010e+03
 1.0872460e+01   4.9535935e+03
 1.0877140e+01   4.9422314e+03
 1.0881820e+01   4.9366421e+03
 1.0886500e+01   4.9176597e+03
 1.0891180e+01   4.9140349e+03
 1.0895860e+01   4.9093480e+03
 1.0900540e+01   4.8956318e+03
 1.0905220e+01   4.8762028e+03
 1.0909900e+01   4.8731203e+03
 1.0914580e+01   4.8556598e+03
 1.0919260e+01   4.8513848e+03
 1.0923940e+01   4.8386320e+03
 1.0928620e+01   4.8325929e+03
 1.0933300e+01   4.8253707e+03
 1.0937980e+01   4.8190922e+03
 1.0942660e+01   4.8141759e+03
 1.0947340e+01   4.7990717e+03
 1.0952020e+01   4.7979167e+03
 1.0956700e+01   4.7940467e+03
 1.0961380e+01   4.7933720e+03
 1.0966060e+01   4.7781242e+03
 1.0970740e+01   4.7819219e+03
 1.0975420e+01   4.7699199e+03
 1.0980100e+01   4.7590356e+03
 1.0984780e+01   4.7537210e+03
 1.0989460e+01   4.7547957e+03
 1.0994140e+01   4.7498194e+03
 1.0998820e+01   4.7486656e+03
 1.1003500e+01   4.7496931e+03
 1.1008180e+01   4.7534217e+03
 1.1012860e+01   4.7563749e+03
 1.1017540e+01   4.7508054e+03
 1.1022220e+01   4.7598203e+03
 1.1026900e+01   4.7493965e+03
 1.1031580e+01   4.7608581e+03
 1.1036260e+01   4.7573349e+03
 1.1040940e+01   4.7663847e+03
 1.1045620e+01   4.7705697e+03
 1.1050300e+01   4.7822209e+03
 1.1054980e+01   4.7836243e+03
 1.1059660e+01   4.8021257e+03
 1.1064340e+01   4.8010147e+03
 1.1069020e+01   4.8091722e+03
 1.1073700e+01   4.8246207e+03
 1.1078380e+01   4.8208657e+03
 1.1083060e+01   4.8524918e+03
 1.1087740e+01   4.8634470e+03
 1.1092420e+01   4.8898764e+03
 1.1097100e+01   4.9117862e+03
 1.1101780e+01   4.9189800e+03
 1.1106460e+01   4.9476569e+03
 1.1111140e+01   4.9740275e+03
 1.1115820e+01   4.9796608e+03
 1.1120500e+01   5.0152700e+03
 1.1125180e+01   5.0141403e+03
 1.1129860e+01   5.0304515e+03
 1.1134540e+01   5.0263732e+03
 1.1139220e+01   5.0322688e+03
 1.1143900e+01   5.0239227e+03
 1.1148580e+01   5.0170728e+03
 1.1153260e+01   5.0145221e+03
 1.1157940e+01   5.0043611e+03
 1.1162620e+01   4.9678241e+03
 1.1167300e+01   4.9578037e+03
 1.1171980e+01   4.9551742e+03
 1.1176660e+01   4.9253052e+03
 1.1181340e+01   4.9224002e+03
 1.1186020e+01   4.8910007e+03
 1.1190700e+01   4.8803258e+03
 1.1195380e+01   4.8786094e+03
 1.1200060e+01   4.8532784e+03
 1.1204740e+01   4.8409268e+03
 1.1209420e+01   4.8650681e+03
 1.1214100e+01   4.8260922e+03
 1.1218780e+01   4.8930129e+03
 1.1223460e+01   4.8330272e+03
 1.1228140e+01   4.8161094e+03
 1.1232820e+01   4.8715733e+03
 1.1237500e+01   4.8195667e+03
 1.1242180e+01   4.8127556e+03
 1.1246860e+01   4.7897819e+03
 1.1251540e+01   4.7851218e+03
 1.1256220e+01   4.7846731e+03
 1.1260900e+01   4.7604546e+03
 1.1265580e+01   4.7518953e+03
 1.1270260e+01   4.7406021e+03
 1.1274940e+01   4.7248533e+03
 1.1279620e+01   4.7193733e+03
 1.1284300e+01   4.7013936e+03
 1.1288980e+01   4.7046408e+03
 1.1293660e+01   4.7128706e+03
 1.1298340e+01   4.6861352e+03
 1.1303020e+01   4.6891067e+03
 1.1307700e+01   4.6796815e+03
 1.1312380e+01   4.6675084e+03
 1.1317060e+01   4.6677706e+03
 1.1321740e+01   4.6541082e+03
 1.1326420e+01   4.6417497e+03
 1.1331100e+01   4.6378764e+03
 1.1335780e+01   4.6297798e+03
 1.1340460e+01   4.6161827e+03
 1.1345140e+01   4.6218299e+03
 1.1349820e+01   4.6027753e+03
 1.1354500e+01   4.6019510e+03
 1.1359180e+01   4.5861203e+03
 1.1363860e+01   4.5744734e+03
 1.1368540e+01   4.5738834e+03
 1.1373220e+01   4.5499652e+03
 1.1377900e+01   4.5621597e+03
 1.1382580e+01   4.5441234e+03
 1.1387260e+01   4.5460679e+03
 1.1391940e+01   4.5400497e+03
 1.1396620e+01   4.5230776e+03
 1.1401300e+01   4.5271882e+03
 1.1405980e+01   4.5227968e+03
 1.1410660e+01   4.5117111e+03
 1.1415340e+01   4.5173704e+03
 1.1420020e+01   4.5110494e+03
 1.1424700e+01   4.5125959e+03
 1.1429380e+01   4.5109888e+03
 1.1434060e+01   4.4984224e+03
 1.1438740e+01   4.4971997e+03
 1.1443420e+01   4.4940249e+03
 1.1448100e+01   4.4947767e+03
 1.1452780e+01   4.5003849e+03
 1.1457460e+01   4.4718592e+03
 1.1462140e+01   4.4816236e+03
 1.1466820e+01   4.4763356e+03
 1.1471500e+01   4.4754716e+03
 1.1476180e+01   4.4804713e+03
 1.1480860e+01   4.4758486e+03
 1.1485540e+01   4.4833845e+03
 1.1490220e+01   4.4745558e+03
 1.1494900e+01   4.4609309e+03
 1.1499580e+01   4.4611827e+03
 1.1504260e+01   4.4607272e+03
 1.1508940e+01   4.4497072e+03
 1.1513620e+01   4.4564834e+03
 1.1518300e+01   4.4387525e+03
 1.1522980e+01   4.4355189e+03
 1.1527660e+01   4.4392424e+03
 1.1532340e+01   4.4134716e+03
 1.1537020e+01   4.4106702e+03
 1.1541700e+01   4.4053746e+03
 1.1546380e+01   4.4044414e+03
 1.1551060e+01   4.3943392e+03
 1.1555740e+01   4.3902708e+03
 1.1560420e+01   4.3890803e+03
 1.1565100e+01   4.3865172e+03
 1.1569780e+01   4.3637831e+03
 1.1574460e+01   4.3809127e+03
 1.1579140e+01   4.3654142e+03
 1.1583820e+01   4.3669222e+03
 1.1588500e+01   4.3603204e+03
 1.1593180e+01   4.3555942e+03
 1.1597860e+01   4.3659145e+03
 1.1602540e+01   4.3588742e+03
 1.1607220e+01   4.3756930e+03
 1.1611900e+01   4.3616880e+03
 1.1616580e+01   4.3588731e+03
 1.1621260e+01   4.3674563e+03
 1.1625940e+01   4.3524732e+03
 1.1630620e+01   4.3431299e+03
 1.1635300e+01   4.3481855e+03
 1.1639980e+01   4.3465981e+03
 1.1644660e+01   4.3293957e+03
 1.1649340e+01   4.3357987e+03
 1.1654020e+01   4.3304550e+03
 1.1658700e+01   4.3239379e+03
 1.1663380e+01   4.3198379e+03
 1.1668060e+01   4.3161269e+03
 1.1672740e+01   4.3210870e+03
 1.1677420e+01   4.3172663e+03
 1.1682100e+01   4.3116042e+03
 1.1686780e+01   4.2988713e+03
 1.1691460e+01   4.3086010e+03
 1.1696140e+01   4.3015164e+03
 1.1700820e+01   4.2983906e+03
 1.1705500e+01   4.2968835e+03
 1.1710180e+01   4.2931717e+03
 1.1714860e+01   4.2871984e+03
 1.1719540e+01   4.2920694e+03
 1.1724220e+01   4.2948377e+03
 1.1728900e+01   4.2918299e+03
 1.1733580e+01   4.2952692e+03
 1.1738260e+01   4.2898197e+03
 1.1742940e+01   4.2893169e+03
 1.1747620e+01   4.2912106e+03
 1.1752300e+01   4.2870373e+03
 1.1756980e+01   4.2920868e+03
 1.1761660e+01   4.2873602e+03
 1.1766340e+01   4.2880124e+03
 1.1771020e+01   4.2893238e+03
 1.1775700e+01   4.3019314e+03
 1.1780380e+01   4.3021606e+03
 1.1785060e+01   4.3066436e+03
 1.1789740e+01   4.2965302e+03
 1.1794420e+01   4.3232904e+03
 1.1799100e+01   4.3049051e+03
 1.1803780e+01   4.3025926e+03
 1.1808460e+01   4.3164916e+03
 1.1813140e+01   4.3051951e+03
 1.1817820e+01   4.3148865e+03
 1.1822500e+01   4.3170630e+03
 1.1827180e+01   4.3156891e+03
 1.1831860e+01   4.3172923e+03
 1.1836540e+01   4.3238241e+03
 1.1841220e+01   4.3243665e+03
 1.1845900e+01   4.3268975e+03
 1.1850580e+01   4.3306116e+03
 1.1855260e+01   4.3524760e+03
 1.1859940e+01   4.3568424e+03
 1.1864620e+01   4.3772279e+03
 1.1869300e+01   4.3946321e+03
 1.1873980e+01   4.4186160e+03
 1.1878660e+01   4.4308663e+03
 1.1883340e+01   4.4497275e+03
 1.1888020e+01   4.4880048e+03
 1.1892700e+01   4.5409180e+03
 1.1897380e+01   4.5793538e+03
 1.1902060e+01   4.6466609e+03
 1.1906740e+01   4.6196876e+03
 1.1911420e+01   4.6385818e+03
 1.1916100e+01   4.5898590e+03
 1.1920780e+01   4.5402679e+03
 1.1925460e+01   4.5634378e+03
 1.1930140e+01   4.4943849e+03
 1.1934820e+01   4.4749422e+03
 1.1939500e+01   4.4651958e+03
 1.1944180e+01   4.4239783e+03
 1.1948860e+01   4.4217047e+03
 1.1953540e+01   4.4152209e+03
 1.1958220e+01   4.4116371e+03
 1.1962900e+01   4.4054546e+03
 1.1967580e+01   4.4256927e+03
 1.1972260e+01   4.4222523e+03
 1.1976940e+01   4.4355793e+03
 1.1981620e+01   4.4387499e+03
 1.1986300e+01   4.4431145e+03
 1.1990980e+01   4.4598366e+03
 1.1995660e+01   4.4665729e+03
 1.2000340e+01   4.4650654e+03
 1.2005020e+01   4.4747412e+03
 1.2009700e+01   4.4807059e+03
 1.2014380e+01   4.4729968e+03
 1.2019060e+01   4.4896613e+03
 1.2023740e+01   4.4751954e+03
 1.2028420e+01   4.4925184e+03
 1.2033100e+01   4.4725097e+03
 1.2037780e+01   4.4807645e+03
 1.2042460e+01   4.4794750e+03
 1.2047140e+01   4.4763987e+03
 1.2051820e+01   4.4871860e+03
 1.2056500e+01   4.4740152e+03
 1.2061180e+01   4.4718451e+03
 1.2065860e+01   4.4833932e+03
 1.2070540e+01   4.4788199e+03
 1.2075220e+01   4.4761545e+03
 1.2079900e+01   4.4820593e+03
 1.2084580e+01   4.4835562e+03
 1.2089260e+01   4.4851226e+03
 1.2093940e+01   4.4736205e+03
 1.2098620e+01   4.4860645e+03
 1.2103300e+01   4.4740652e+03
 1.2107980e+01   4.4704322e+03
 1.2112660e+01   4.4710782e+03
 1.2117340e+01   4.4601745e+03
 1.2122020e+01   4.4447550e+03
 1.2126700e+01   4.4324598e+03
 1.2131380e+01   4.4130115e+03
 1.2136060e+01   4.3933648e+03
 1.2140740e+01   4.3729297e+03
 1.2145420e+01   4.3471685e+03
 1.2150100e+01   4.3293349e+03
 1.2154780e+01   4.3106682e+03
 1.2159460e+01   4.2903167e+03
 1.2164140e+01   4.2650208e+03
 1.2168820e+01   4.2383245e+03
 1.2173500e+01   4.2272083e+03
 1.2178180e+01   4.1983469e+03
 1.2182860e+01   4.1839366e+03
 1.2187540e+01   4.1766629e+03
 1.2192220e+01   4.1616189e+03
 1.2196900e+01   4.1525263e+03
 1.2201580e+01   4.1448429e+03
 1.2206260e+01   4.1239272e+03
 1.2210940e+01   4.1264732e+03
 1.2215620e+01   4.1137324e+03
 1.2220300e+01   4.0970660e+03
 1.2224980e+01   4.0925052e+03
 1.2229660e+01   4.0877267e+03
 1.2234340e+01   4.1028554e+03
 1.2239020e+01   4.0852510e+03
 1.2243700e+01   4.0822730e+03
 1.2248380e+01   4.0784872e+03
 1.2253060e+01   4.0785212e+03
 1.2257740e+01   4.0701092e+03
 1.2262420e+01   4.0691822e+03
 1.2267100e+01   4.0591288e+03
 1.2271780e+01   4.0528060e+03
 1.2276460e+01   4.0576919e+03
 1.2281140e+01   4.0616771e+03
 1.2285820e+01   4.0606724e+03
 1.2290500e+01   4.0526901e+03
 1.2295180e+01   4.0528471e+03
 1.2299860e+01   4.0484591e+03
 1.2304540e+01   4.0509321e+03
 1.2309220e+01   4.0583585e+03
 1.2313900e+01   4.0597128e+03
 1.2318580e+01   4.0527528e+03
 1.2323260e+01   4.0617549e+03
 1.2327940e+01   4.0544391e+03
 1.2332620e+01   4.0565128e+03
 1.2337300e+01   4.0572518e+03
 1.2341980e+01   4.0606263e+03
 1.2346660e+01   4.0640470e+03
 1.2351340e+01   4.0584360e+03
 1.2356020e+01   4.0786801e+03
 1.2360700e+01   4.0722904e+03
 1.2365380e+01   4.0783200e+03
 1.2370060e+01   4.0882470e+03
 1.2374740e+01   4.0918937e+03
 1.2379420e+01   4.0873075e+03
 1.2384100e+01   4.0934828e+03
 1.2388780e+01   4.1008562e+03
 1.2393460e+01   4.0978586e+03
 1.2398140e+01   4.1003807e+03
 1.2402820e+01   4.0994505e+03
 1.2407500e+01   4.1124070e+03
 1.2412180e+01   4.1042669e+03
 1.2416860e+01   4.1174507e+03
 1.2421540e+01   4.1173707e+03
 1.2426220e+01   4.1231615e+03
 1.2430900e+01   4.1300382e+03
 1.2435580e+01   4.1323003e+03
 1.2440260e+01   4.1298028e+03
 1.2444940e+01   4.1476291e+03
 1.2449620e+01   4.1563314e+03
 1.2454300e+01   4.1597092e+03
 1.2458980e+01   4.1657097e+03
 1.2463660e+01   4.1667025e+03
 1.2468340e+01   4.1722533e+03
 1.2473020e+01   4.1690185e+03
 1.2477700e+01   4.1911913e+03
 1.2482380e+01   4.1902895e+03
 1.2487060e+01   4.1939515e+03
 1.2491740e+01   4.1927005e+03
 1.2496420e+01   4.1843399e+03
 1.2501100e+01   4.1846287e+03
 1.2505780e+01   4.1868464e+03
 1.2510460e+01   4.1862961e+03
 1.2515140e+01   4.1817499e+03
 1.2519820e+01   4.1853755e+03
 1.2524500e+01   4.1847155e+03
 1.2529180e+01   4.1764115e+03
 1.2533860e+01   4.1792306e+03
 1.2538540e+01   4.1717584e+03
 1.2543220e+01   4.1794368e+03
 1.2547900e+01   4.1896967e+03
 1.2552580e+01   4.1914030e+03
 1.2557260e+01   4.2126582e+03
 1.2561940e+01   4.2083402e+03
 1.2566620e+01   4.2042247e+03
 1.2571300e+01   4.2211468e+03
 1.2575980e+01   4.2136890e+03
 1.2580660e+01   4.1960686e+03
 1.2585340e+01   4.2042102e+03
 1.2590020e+01   4.1972464e+03
 1.2594700e+01   4.2047360e+03
 1.2599380e+01   4.2174402e+03
 1.2604060e+01   4.2236582e+03
 1.2608740e+01   4.2223353e+03
 1.2613420e+01   4.2307308e+03
 1.2618100e+01   4.2295946e+03
 1.2622780e+01   4.2334328e+03
 1.2627460e+01   4.2271005e+03
 1.2632140e+01   4.2443031e+03
 1.2636820e+01   4.2366482e+03
 1.2641500e+01   4.2409134e+03
 1.2646180e+01   4.2399708e+03
 1.2650860e+01   4.2372289e+03
 1.2655540e+01   4.2367856e+03
 1.2660220e+01   4.2242607e+03
 1.2664900e+01   4.2107275e+03
 1.2669580e+01   4.2034691e+03
 1.2674260e+01   4.2004378e+03
 1.2678940e+01   4.1890493e+03
 1.2683620e+01   4.1878273e+03
 1.2688300e+01   4.1812069e+03
 1.2692980e+01   4.1684806e+03
 1.2697660e+01   4.1612023e+03
