MA2b-00001.tif Azm= 0.00
2-Theta Angle (Degrees)
Intensity
       2500
 1.0023400e+00   7.8379739e+03
 1.0070200e+00   7.8497399e+03
 1.0117000e+00   7.7937918e+03
 1.0163800e+00   7.7908275e+03
 1.0210600e+00   7.7157402e+03
 1.0257400e+00   7.7448015e+03
 1.0304199e+00   7.6841321e+03
 1.0351000e+00   7.6590224e+03
 1.0397800e+00   7.6368873e+03
 1.0444601e+00   7.5974410e+03
 1.0491400e+00   7.5907209e+03
 1.0538200e+00   7.5826109e+03
 1.0585001e+00   7.5234635e+03
 1.0631800e+00   7.4789870e+03
 1.0678600e+00   7.5154770e+03
 1.0725400e+00   7.4884358e+03
 1.0772200e+00   7.4365292e+03
 1.0819000e+00   7.4320662e+03
 1.0865800e+00   7.4269434e+03
 1.0912600e+00   7.4119748e+03
 1.0959400e+00   7.4020534e+03
 1.1006200e+00   7.3730234e+03
 1.1052999e+00   7.3343437e+03
 1.1099800e+00   7.3227661e+03
 1.1146600e+00   7.3243406e+03
 1.1193399e+00   7.2938565e+03
 1.1240200e+00   7.2755724e+03
 1.1287000e+00   7.2616437e+03
 1.1333801e+00   7.2536631e+03
 1.1380600e+00   7.2361384e+03
 1.1427400e+00   7.2624710e+03
 1.1474200e+00   7.2178261e+03
 1.1521000e+00   7.2068945e+03
 1.1567800e+00   7.1893982e+03
 1.1614600e+00   7.1588149e+03
 1.1661400e+00   7.1562544e+03
 1.1708200e+00   7.1490453e+03
 1.1755000e+00   7.1363074e+03
 1.1801800e+00   7.1385845e+03
 1.1848600e+00   7.1501706e+03
 1.1895400e+00   7.1453561e+03
 1.1942199e+00   7.1070665e+03
 1.1989000e+00   7.0943169e+03
 1.2035800e+00   7.0984250e+03
 1.2082601e+00   7.0855105e+03
 1.2129400e+00   7.0793421e+03
 1.2176200e+00   7.0667935e+03
 1.2223001e+00   7.1079860e+03
 1.2269800e+00   7.0508507e+03
 1.2316600e+00   7.0515606e+03
 1.2363400e+00   7.0472902e+03
 1.2410200e+00   7.0549333e+03
 1.2457000e+00   7.0774710e+03
 1.2503800e+00   7.0335319e+03
 1.2550600e+00   7.0544654e+03
 1.2597400e+00   7.0451598e+03
 1.2644200e+00   7.0526002e+03
 1.2691000e+00   7.0387455e+03
 1.2737800e+00   7.0666819e+03
 1.2784600e+00   7.0701296e+03
 1.2831399e+00   7.0343086e+03
 1.2878200e+00   7.0543541e+03
 1.2925000e+00   7.0416346e+03
 1.2971801e+00   7.0608763e+03
 1.3018600e+00   7.0650593e+03
 1.3065400e+00   7.0574524e+03
 1.3112200e+00   7.0546403e+03
 1.3159000e+00   7.0438900e+03
 1.3205800e+00   7.0195945e+03
 1.3252600e+00   7.0612068e+03
 1.3299400e+00   7.0553599e+03
 1.3346200e+00   7.0738987e+03
 1.3393000e+00   7.0853085e+03
 1.3439800e+00   7.0864768e+03
 1.3486600e+00   7.0706831e+03
 1.3533400e+00   7.0851259e+03
 1.3580199e+00   7.1014726e+03
 1.3627000e+00   7.1204218e+03
 1.3673800e+00   7.1140689e+03
 1.3720599e+00   7.1068459e+03
 1.3767400e+00   7.1258101e+03
 1.3814200e+00   7.1347707e+03
 1.3861001e+00   7.1580439e+03
 1.3907800e+00   7.1559607e+03
 1.3954600e+00   7.1962850e+03
 1.4001400e+00   7.1736411e+03
 1.4048200e+00   7.2103450e+03
 1.4095000e+00   7.2116705e+03
 1.4141800e+00   7.2365401e+03
 1.4188600e+00   7.2579146e+03
 1.4235400e+00   7.2896215e+03
 1.4282200e+00   7.3158433e+03
 1.4329000e+00   7.3516875e+03
 1.4375800e+00   7.3417509e+03
 1.4422600e+00   7.3416187e+03
 1.4469399e+00   7.3729972e+03
 1.4516200e+00   7.3895732e+03
 1.4563000e+00   7.4205589e+03
 1.4609801e+00   7.4753797e+03
 1.4656600e+00   7.4933893e+03
 1.4703400e+00   7.5079585e+03
 1.4750201e+00   7.5241649e+03
 1.4797000e+00   7.5613847e+03
 1.4843800e+00   7.5709842e+03
 1.4890600e+00   7.6185086e+03
 1.4937400e+00   7.6351187e+03
 1.4984200e+00   7.6346971e+03
 1.5031000e+00   7.6665861e+03
 1.5077800e+00   7.6497863e+03
 1.5124600e+00   7.6857798e+03
 1.5171400e+00   7.7224848e+03
 1.5218199e+00   7.6918960e+03
 1.5265000e+00   7.6617252e+03
 1.5311800e+00   7.7045740e+03
 1.5358599e+00   7.6903584e+03
 1.5405400e+00   7.6940762e+03
 1.5452200e+00   7.6710155e+03
 1.5499001e+00   7.7103858e+03
 1.5545800e+00   7.6526889e+03
 1.5592600e+00   7.6567808e+03
 1.5639400e+00   7.6905862e+03
 1.5686200e+00   7.6576395e+03
 1.5733000e+00   7.6599834e+03
 1.5779800e+00   7.6806907e+03
 1.5826600e+00   7.6316810e+03
 1.5873400e+00   7.6399859e+03
 1.5920200e+00   7.6398851e+03
 1.5967000e+00   7.6481875e+03
 1.6013800e+00   7.6445700e+03
 1.6060600e+00   7.6260345e+03
 1.6107399e+00   7.6186481e+03
 1.6154200e+00   7.6657343e+03
 1.6201000e+00   7.6114685e+03
 1.6247801e+00   7.6215877e+03
 1.6294600e+00   7.6308585e+03
 1.6341400e+00   7.6149027e+03
 1.6388201e+00   7.6308212e+03
 1.6435000e+00   7.6279914e+03
 1.6481800e+00   7.6065187e+03
 1.6528600e+00   7.6472394e+03
 1.6575400e+00   7.6542445e+03
 1.6622200e+00   7.6246696e+03
 1.6669000e+00   7.6516118e+03
 1.6715800e+00   7.6547082e+03
 1.6762600e+00   7.6332664e+03
 1.6809400e+00   7.6551344e+03
 1.6856200e+00   7.6494622e+03
 1.6903000e+00   7.6504736e+03
 1.6949800e+00   7.6661602e+03
 1.6996599e+00   7.6413205e+03
 1.7043400e+00   7.6578171e+03
 1.7090200e+00   7.6420030e+03
 1.7137001e+00   7.6516514e+03
 1.7183800e+00   7.6414188e+03
 1.7230600e+00   7.6722984e+03
 1.7277400e+00   7.6658045e+03
 1.7324200e+00   7.6936418e+03
 1.7371000e+00   7.6676957e+03
 1.7417800e+00   7.6969632e+03
 1.7464600e+00   7.6734866e+03
 1.7511400e+00   7.7027106e+03
 1.7558200e+00   7.6921683e+03
 1.7605000e+00   7.7096911e+03
 1.7651800e+00   7.7254925e+03
 1.7698600e+00   7.7161112e+03
 1.7745399e+00   7.7147921e+03
 1.7792200e+00   7.7451878e+03
 1.7839000e+00   7.7607514e+03
 1.7885799e+00   7.7498818e+03
 1.7932600e+00   7.7902468e+03
 1.7979400e+00   7.7816042e+03
 1.8026201e+00   7.8155928e+03
 1.8073000e+00   7.8145772e+03
 1.8119800e+00   7.8411390e+03
 1.8166600e+00   7.8366770e+03
 1.8213400e+00   7.8620541e+03
 1.8260200e+00   7.8703475e+03
 1.8307000e+00   7.8814298e+03
 1.8353800e+00   7.9271149e+03
 1.8400600e+00   7.9196235e+03
 1.8447400e+00   7.9234342e+03
 1.8494200e+00   7.9655530e+03
 1.8541000e+00   7.9609218e+03
 1.8587800e+00   7.9804659e+03
 1.8634599e+00   8.0110804e+03
 1.8681400e+00   8.0055378e+03
 1.8728200e+00   8.0653464e+03
 1.8775001e+00   8.0493066e+03
 1.8821800e+00   8.1136972e+03
 1.8868600e+00   8.1226844e+03
 1.8915401e+00   8.1466527e+03
 1.8962200e+00   8.1643378e+03
 1.9009000e+00   8.1746792e+03
 1.9055800e+00   8.1953300e+03
 1.9102600e+00   8.2620056e+03
 1.9149400e+00   8.2422681e+03
 1.9196200e+00   8.2548684e+03
 1.9243000e+00   8.3200803e+03
 1.9289800e+00   8.3045017e+03
 1.9336600e+00   8.3288271e+03
 1.9383399e+00   8.3913662e+03
 1.9430200e+00   8.3850423e+03
 1.9477000e+00   8.4123026e+03
 1.9523799e+00   8.4585095e+03
 1.9570600e+00   8.4597522e+03
 1.9617400e+00   8.4970302e+03
 1.9664201e+00   8.5127828e+03
 1.9711000e+00   8.5429167e+03
 1.9757800e+00   8.5724150e+03
 1.9804600e+00   8.5802359e+03
 1.9851400e+00   8.6096589e+03
 1.9898200e+00   8.6338233e+03
 1.9945000e+00   8.6543047e+03
 1.9991800e+00   8.6927646e+03
 2.0038600e+00   8.7045884e+03
 2.0085399e+00   8.7442435e+03
 2.0132201e+00   8.7509566e+03
 2.0179000e+00   8.7652777e+03
 2.0225799e+00   8.7974677e+03
 2.0272601e+00   8.8204500e+03
 2.0319400e+00   8.8583056e+03
 2.0366199e+00   8.8532751e+03
 2.0413001e+00   8.9120228e+03
 2.0459800e+00   8.9499579e+03
 2.0506599e+00   8.9681137e+03
 2.0553401e+00   8.9676962e+03
 2.0600200e+00   9.0202173e+03
 2.0646999e+00   9.0415614e+03
 2.0693800e+00   9.1016241e+03
 2.0740600e+00   9.1223113e+03
 2.0787399e+00   9.1765985e+03
 2.0834200e+00   9.2572086e+03
 2.0881000e+00   9.2935173e+03
 2.0927801e+00   9.3885840e+03
 2.0974600e+00   9.4816939e+03
 2.1021399e+00   9.5903994e+03
 2.1068201e+00   9.7446091e+03
 2.1115000e+00   9.9201779e+03
 2.1161799e+00   1.0163702e+04
 2.1208601e+00   1.0486505e+04
 2.1255400e+00   1.0927280e+04
 2.1302199e+00   1.1577060e+04
 2.1349001e+00   1.2488634e+04
 2.1395800e+00   1.3586260e+04
 2.1442599e+00   1.4894036e+04
 2.1489401e+00   1.6468130e+04
 2.1536200e+00   1.8017130e+04
 2.1582999e+00   1.9535047e+04
 2.1629801e+00   2.1026475e+04
 2.1676600e+00   2.2386969e+04
 2.1723399e+00   2.3355563e+04
 2.1770201e+00   2.3916831e+04
 2.1817000e+00   2.4087493e+04
 2.1863799e+00   2.3739122e+04
 2.1910601e+00   2.3020153e+04
 2.1957400e+00   2.2065211e+04
 2.2004199e+00   2.0877743e+04
 2.2051001e+00   1.9713027e+04
 2.2097800e+00   1.8623137e+04
 2.2144599e+00   1.7668960e+04
 2.2191401e+00   1.6858677e+04
 2.2238200e+00   1.6218727e+04
 2.2284999e+00   1.5686737e+04
 2.2331800e+00   1.5246420e+04
 2.2378600e+00   1.4769687e+04
 2.2425399e+00   1.4377917e+04
 2.2472200e+00   1.3865002e+04
 2.2519000e+00   1.3313572e+04
 2.2565801e+00   1.2748268e+04
 2.2612600e+00   1.2216076e+04
 2.2659400e+00   1.1693117e+04
 2.2706201e+00   1.1314549e+04
 2.2753000e+00   1.1028050e+04
 2.2799799e+00   1.0803505e+04
 2.2846601e+00   1.0684848e+04
 2.2893400e+00   1.0543400e+04
 2.2940199e+00   1.0504400e+04
 2.2987001e+00   1.0468384e+04
 2.3033800e+00   1.0477060e+04
 2.3080599e+00   1.0434139e+04
 2.3127401e+00   1.0451077e+04
 2.3174200e+00   1.0465665e+04
 2.3220999e+00   1.0458437e+04
 2.3267801e+00   1.0468766e+04
 2.3314600e+00   1.0482133e+04
 2.3361399e+00   1.0517857e+04
 2.3408201e+00   1.0557475e+04
 2.3455000e+00   1.0571218e+04
 2.3501799e+00   1.0591498e+04
 2.3548601e+00   1.0613724e+04
 2.3595400e+00   1.0623226e+04
 2.3642199e+00   1.0678645e+04
 2.3689001e+00   1.0699364e+04
 2.3735800e+00   1.0736895e+04
 2.3782599e+00   1.0747836e+04
 2.3829401e+00   1.0793961e+04
 2.3876200e+00   1.0814041e+04
 2.3922999e+00   1.0846982e+04
 2.3969800e+00   1.0897972e+04
 2.4016600e+00   1.0924506e+04
 2.4063399e+00   1.0969673e+04
 2.4110200e+00   1.0986586e+04
 2.4157000e+00   1.1035735e+04
 2.4203801e+00   1.1064252e+04
 2.4250600e+00   1.1129246e+04
 2.4297400e+00   1.1147667e+04
 2.4344201e+00   1.1174454e+04
 2.4391000e+00   1.1213670e+04
 2.4437799e+00   1.1244442e+04
 2.4484601e+00   1.1283296e+04
 2.4531400e+00   1.1343468e+04
 2.4578199e+00   1.1370470e+04
 2.4625001e+00   1.1406707e+04
 2.4671800e+00   1.1441294e+04
 2.4718599e+00   1.1461961e+04
 2.4765401e+00   1.1487635e+04
 2.4812200e+00   1.1519327e+04
 2.4858999e+00   1.1574157e+04
 2.4905801e+00   1.1613000e+04
 2.4952600e+00   1.1647358e+04
 2.4999399e+00   1.1673069e+04
 2.5046201e+00   1.1710512e+04
 2.5093000e+00   1.1767629e+04
 2.5139799e+00   1.1786397e+04
 2.5186601e+00   1.1837049e+04
 2.5233400e+00   1.1865641e+04
 2.5280199e+00   1.1907879e+04
 2.5327001e+00   1.1923701e+04
 2.5373800e+00   1.1979119e+04
 2.5420599e+00   1.1996188e+04
 2.5467401e+00   1.2036208e+04
 2.5514200e+00   1.2059546e+04
 2.5560999e+00   1.2094092e+04
 2.5607800e+00   1.2128762e+04
 2.5654600e+00   1.2139155e+04
 2.5701399e+00   1.2184353e+04
 2.5748200e+00   1.2205519e+04
 2.5795000e+00   1.2256863e+04
 2.5841801e+00   1.2268565e+04
 2.5888600e+00   1.2284893e+04
 2.5935400e+00   1.2324926e+04
 2.5982201e+00   1.2373870e+04
 2.6029000e+00   1.2389394e+04
 2.6075799e+00   1.2425102e+04
 2.6122601e+00   1.2450478e+04
 2.6169400e+00   1.2448678e+04
 2.6216199e+00   1.2485978e+04
 2.6263001e+00   1.2514431e+04
 2.6309800e+00   1.2521565e+04
 2.6356599e+00   1.2544617e+04
 2.6403401e+00   1.2573728e+04
 2.6450200e+00   1.2558885e+04
 2.6496999e+00   1.2601848e+04
 2.6543801e+00   1.2608293e+04
 2.6590600e+00   1.2619776e+04
 2.6637399e+00   1.2640050e+04
 2.6684201e+00   1.2668381e+04
 2.6731000e+00   1.2684913e+04
 2.6777799e+00   1.2687608e+04
 2.6824601e+00   1.2684620e+04
 2.6871400e+00   1.2692325e+04
 2.6918199e+00   1.2712473e+04
 2.6965001e+00   1.2712314e+04
 2.7011800e+00   1.2738047e+04
 2.7058599e+00   1.2732715e+04
 2.7105401e+00   1.2740152e+04
 2.7152200e+00   1.2754477e+04
 2.7198999e+00   1.2745974e+04
 2.7245800e+00   1.2765304e+04
 2.7292600e+00   1.2772623e+04
 2.7339399e+00   1.2758374e+04
 2.7386200e+00   1.2765868e+04
 2.7433000e+00   1.2753928e+04
 2.7479801e+00   1.2749690e+04
 2.7526600e+00   1.2752665e+04
 2.7573400e+00   1.2730714e+04
 2.7620201e+00   1.2752660e+04
 2.7667000e+00   1.2723783e+04
 2.7713799e+00   1.2702432e+04
 2.7760601e+00   1.2702359e+04
 2.7807400e+00   1.2703487e+04
 2.7854199e+00   1.2691325e+04
 2.7901001e+00   1.2707209e+04
 2.7947800e+00   1.2674397e+04
 2.7994599e+00   1.2674343e+04
 2.8041401e+00   1.2664943e+04
 2.8088200e+00   1.2629244e+04
 2.8134999e+00   1.2618573e+04
 2.8181801e+00   1.2597713e+04
 2.8228600e+00   1.2619192e+04
 2.8275399e+00   1.2610569e+04
 2.8322201e+00   1.2581265e+04
 2.8369000e+00   1.2550338e+04
 2.8415799e+00   1.2568070e+04
 2.8462601e+00   1.2519562e+04
 2.8509400e+00   1.2516753e+04
 2.8556199e+00   1.2494570e+04
 2.8603001e+00   1.2484257e+04
 2.8649800e+00   1.2471958e+04
 2.8696599e+00   1.2456099e+04
 2.8743401e+00   1.2426549e+04
 2.8790200e+00   1.2415018e+04
 2.8836999e+00   1.2380528e+04
 2.8883801e+00   1.2384632e+04
 2.8930600e+00   1.2367370e+04
 2.8977399e+00   1.2351163e+04
 2.9024200e+00   1.2327999e+04
 2.9071000e+00   1.2324878e+04
 2.9117801e+00   1.2268375e+04
 2.9164600e+00   1.2282050e+04
 2.9211400e+00   1.2262277e+04
 2.9258201e+00   1.2221471e+04
 2.9305000e+00   1.2212095e+04
 2.9351799e+00   1.2194165e+04
 2.9398601e+00   1.2168519e+04
 2.9445400e+00   1.2168821e+04
 2.9492199e+00   1.2111171e+04
 2.9539001e+00   1.2140886e+04
 2.9585800e+00   1.2096093e+04
 2.9632599e+00   1.2086499e+04
 2.9679401e+00   1.2051861e+04
 2.9726200e+00   1.2038532e+04
 2.9772999e+00   1.2000563e+04
 2.9819801e+00   1.1993583e+04
 2.9866600e+00   1.1942940e+04
 2.9913399e+00   1.1950202e+04
 2.9960201e+00   1.1911412e+04
 3.0007000e+00   1.1864383e+04
 3.0053799e+00   1.1854105e+04
 3.0100601e+00   1.1828227e+04
 3.0147400e+00   1.1793219e+04
 3.0194199e+00   1.1781852e+04
 3.0241001e+00   1.1751723e+04
 3.0287800e+00   1.1745769e+04
 3.0334599e+00   1.1715102e+04
 3.0381401e+00   1.1663633e+04
 3.0428200e+00   1.1659512e+04
 3.0474999e+00   1.1612431e+04
 3.0521801e+00   1.1586763e+04
 3.0568600e+00   1.1548667e+04
 3.0615399e+00   1.1535850e+04
 3.0662200e+00   1.1486938e+04
 3.0709000e+00   1.1478024e+04
 3.0755799e+00   1.1446501e+04
 3.0802600e+00   1.1435988e+04
 3.0849400e+00   1.1401855e+04
 3.0896201e+00   1.1364498e+04
 3.0943000e+00   1.1339940e+04
 3.0989799e+00   1.1352269e+04
 3.1036601e+00   1.1281356e+04
 3.1083400e+00   1.1285251e+04
 3.1130199e+00   1.1262187e+04
 3.1177001e+00   1.1252579e+04
 3.1223800e+00   1.1246649e+04
 3.1270599e+00   1.1190547e+04
 3.1317401e+00   1.1177384e+04
 3.1364200e+00   1.1155600e+04
 3.1410999e+00   1.1150721e+04
 3.1457801e+00   1.1111109e+04
 3.1504600e+00   1.1086329e+04
 3.1551399e+00   1.1095461e+04
 3.1598201e+00   1.1065010e+04
 3.1645000e+00   1.1026498e+04
 3.1691799e+00   1.1029134e+04
 3.1738601e+00   1.1007048e+04
 3.1785400e+00   1.0986493e+04
 3.1832199e+00   1.0986459e+04
 3.1879001e+00   1.0987828e+04
 3.1925800e+00   1.0950996e+04
 3.1972599e+00   1.0969526e+04
 3.2019401e+00   1.0918143e+04
 3.2066200e+00   1.0928291e+04
 3.2112999e+00   1.0903437e+04
 3.2159801e+00   1.0891810e+04
 3.2206600e+00   1.0878071e+04
 3.2253399e+00   1.0847339e+04
 3.2300200e+00   1.0822183e+04
 3.2347000e+00   1.0848002e+04
 3.2393799e+00   1.0808428e+04
 3.2440600e+00   1.0794964e+04
 3.2487400e+00   1.0784209e+04
 3.2534201e+00   1.0757246e+04
 3.2581000e+00   1.0750115e+04
 3.2627800e+00   1.0750590e+04
 3.2674601e+00   1.0732054e+04
 3.2721400e+00   1.0741942e+04
 3.2768199e+00   1.0732049e+04
 3.2815001e+00   1.0703243e+04
 3.2861800e+00   1.0717158e+04
 3.2908599e+00   1.0702242e+04
 3.2955401e+00   1.0682667e+04
 3.3002200e+00   1.0690124e+04
 3.3048999e+00   1.0675663e+04
 3.3095801e+00   1.0678123e+04
 3.3142600e+00   1.0690865e+04
 3.3189399e+00   1.0656526e+04
 3.3236201e+00   1.0677685e+04
 3.3283000e+00   1.0669622e+04
 3.3329799e+00   1.0648986e+04
 3.3376601e+00   1.0649663e+04
 3.3423400e+00   1.0652355e+04
 3.3470199e+00   1.0633026e+04
 3.3517001e+00   1.0649309e+04
 3.3563800e+00   1.0609735e+04
 3.3610599e+00   1.0635881e+04
 3.3657401e+00   1.0621978e+04
 3.3704200e+00   1.0609382e+04
 3.3750999e+00   1.0621121e+04
 3.3797801e+00   1.0624137e+04
 3.3844600e+00   1.0603601e+04
 3.3891399e+00   1.0607724e+04
 3.3938200e+00   1.0611287e+04
 3.3985000e+00   1.0608550e+04
 3.4031799e+00   1.0629673e+04
 3.4078600e+00   1.0583833e+04
 3.4125400e+00   1.0622440e+04
 3.4172201e+00   1.0626110e+04
 3.4219000e+00   1.0604786e+04
 3.4265800e+00   1.0631042e+04
 3.4312601e+00   1.0610469e+04
 3.4359400e+00   1.0637926e+04
 3.4406199e+00   1.0652117e+04
 3.4453001e+00   1.0624428e+04
 3.4499800e+00   1.0652361e+04
 3.4546599e+00   1.0653975e+04
 3.4593401e+00   1.0635775e+04
 3.4640200e+00   1.0652736e+04
 3.4686999e+00   1.0636561e+04
 3.4733801e+00   1.0654761e+04
 3.4780600e+00   1.0646387e+04
 3.4827399e+00   1.0630786e+04
 3.4874201e+00   1.0651544e+04
 3.4921000e+00   1.0632885e+04
 3.4967799e+00   1.0613368e+04
 3.5014601e+00   1.0626506e+04
 3.5061400e+00   1.0618569e+04
 3.5108199e+00   1.0608686e+04
 3.5155001e+00   1.0654562e+04
 3.5201800e+00   1.0614859e+04
 3.5248599e+00   1.0621554e+04
 3.5295401e+00   1.0656640e+04
 3.5342200e+00   1.0616500e+04
 3.5388999e+00   1.0645589e+04
 3.5435801e+00   1.0652974e+04
 3.5482600e+00   1.0597337e+04
 3.5529399e+00   1.0649408e+04
 3.5576200e+00   1.0633951e+04
 3.5623000e+00   1.0614088e+04
 3.5669799e+00   1.0636629e+04
 3.5716600e+00   1.0609767e+04
 3.5763400e+00   1.0614399e+04
 3.5810201e+00   1.0643796e+04
 3.5857000e+00   1.0581298e+04
 3.5903800e+00   1.0611619e+04
 3.5950601e+00   1.0639073e+04
 3.5997400e+00   1.0581260e+04
 3.6044199e+00   1.0647176e+04
 3.6091001e+00   1.0625315e+04
 3.6137800e+00   1.0577953e+04
 3.6184599e+00   1.0670145e+04
 3.6231401e+00   1.0603549e+04
 3.6278200e+00   1.0590167e+04
 3.6324999e+00   1.0615593e+04
 3.6371801e+00   1.0525829e+04
 3.6418600e+00   1.0592134e+04
 3.6465399e+00   1.0576021e+04
 3.6512201e+00   1.0485805e+04
 3.6559000e+00   1.0584227e+04
 3.6605799e+00   1.0519971e+04
 3.6652601e+00   1.0504385e+04
 3.6699400e+00   1.0598246e+04
 3.6746199e+00   1.0424358e+04
 3.6793001e+00   1.0473157e+04
 3.6839800e+00   1.0493846e+04
 3.6886599e+00   1.0391607e+04
 3.6933401e+00   1.0462092e+04
 3.6980200e+00   1.0412615e+04
 3.7026999e+00   1.0344913e+04
 3.7073801e+00   1.0414091e+04
 3.7120600e+00   1.0284234e+04
 3.7167399e+00   1.0274924e+04
 3.7214200e+00   1.0285372e+04
 3.7261000e+00   1.0180983e+04
 3.7307799e+00   1.0182400e+04
 3.7354600e+00   1.0181532e+04
 3.7401400e+00   1.0077988e+04
 3.7448201e+00   1.0099013e+04
 3.7495000e+00   1.0023318e+04
 3.7541800e+00   9.8847944e+03
 3.7588601e+00   9.9538813e+03
 3.7635400e+00   9.7884851e+03
 3.7682199e+00   9.8711297e+03
 3.7729001e+00   9.8253539e+03
 3.7775800e+00   9.7519109e+03
 3.7822599e+00   9.7269371e+03
 3.7869401e+00   9.7715971e+03
 3.7916200e+00   9.5651691e+03
 3.7962999e+00   9.7620415e+03
 3.8009801e+00   9.5830739e+03
 3.8056600e+00   9.5537666e+03
 3.8103399e+00   9.5772905e+03
 3.8150201e+00   9.4816447e+03
 3.8197000e+00   9.4652514e+03
 3.8243799e+00   9.5270806e+03
 3.8290601e+00   9.4487117e+03
 3.8337400e+00   9.4443146e+03
 3.8384199e+00   9.4259315e+03
 3.8431001e+00   9.2772696e+03
 3.8477800e+00   9.4319409e+03
 3.8524599e+00   9.3031726e+03
 3.8571401e+00   9.3091667e+03
 3.8618200e+00   9.2569567e+03
 3.8664999e+00   9.2016741e+03
 3.8711801e+00   9.2018560e+03
 3.8758600e+00   9.1546250e+03
 3.8805399e+00   9.0668611e+03
 3.8852201e+00   9.1511593e+03
 3.8899000e+00   9.0231564e+03
 3.8945799e+00   8.9859746e+03
 3.8992600e+00   8.9951562e+03
 3.9039400e+00   8.9331141e+03
 3.9086201e+00   8.8804417e+03
 3.9133000e+00   8.9220658e+03
 3.9179800e+00   8.8162756e+03
 3.9226601e+00   8.8031753e+03
 3.9273400e+00   8.8350086e+03
 3.9320199e+00   8.7571059e+03
 3.9367001e+00   8.7314369e+03
 3.9413800e+00   8.7512784e+03
 3.9460599e+00   8.6777022e+03
 3.9507401e+00   8.6878988e+03
 3.9554200e+00   8.6776825e+03
 3.9600999e+00   8.6096733e+03
 3.9647801e+00   8.5890854e+03
 3.9694600e+00   8.5760841e+03
 3.9741399e+00   8.5434879e+03
 3.9788201e+00   8.5792017e+03
 3.9835000e+00   8.5203703e+03
 3.9881799e+00   8.4937579e+03
 3.9928601e+00   8.4477485e+03
 3.9975400e+00   8.4099241e+03
 4.0022202e+00   8.4790641e+03
 4.0068998e+00   8.3461841e+03
 4.0115800e+00   8.4101460e+03
 4.0162601e+00   8.4104497e+03
 4.0209398e+00   8.3024577e+03
 4.0256200e+00   8.3480323e+03
 4.0303001e+00   8.3337371e+03
 4.0349798e+00   8.2758763e+03
 4.0396600e+00   8.3429572e+03
 4.0443401e+00   8.2273864e+03
 4.0490198e+00   8.2478339e+03
 4.0537000e+00   8.2619167e+03
 4.0583801e+00   8.1978851e+03
 4.0630598e+00   8.2002849e+03
 4.0677400e+00   8.1940228e+03
 4.0724201e+00   8.1132635e+03
 4.0770998e+00   8.1175114e+03
 4.0817800e+00   8.0881356e+03
 4.0864601e+00   8.0821085e+03
 4.0911398e+00   8.1461864e+03
 4.0958200e+00   8.0235607e+03
 4.1005001e+00   8.0956971e+03
 4.1051798e+00   8.0498257e+03
 4.1098599e+00   8.0047724e+03
 4.1145401e+00   8.0708993e+03
 4.1192198e+00   8.0026873e+03
 4.1238999e+00   7.9458977e+03
 4.1285801e+00   8.0599859e+03
 4.1332598e+00   7.9306058e+03
 4.1379399e+00   7.9955754e+03
 4.1426201e+00   7.9489020e+03
 4.1472998e+00   7.8781228e+03
 4.1519799e+00   7.8955223e+03
 4.1566601e+00   7.9115982e+03
 4.1613402e+00   7.8077707e+03
 4.1660199e+00   7.9675381e+03
 4.1707001e+00   7.7895453e+03
 4.1753802e+00   7.8190415e+03
 4.1800599e+00   7.8522108e+03
 4.1847401e+00   7.7471432e+03
 4.1894202e+00   7.8306041e+03
 4.1940999e+00   7.7745602e+03
 4.1987801e+00   7.7252179e+03
 4.2034602e+00   7.8357105e+03
 4.2081399e+00   7.7488399e+03
 4.2128201e+00   7.7840540e+03
 4.2175002e+00   7.8884149e+03
 4.2221799e+00   7.7538466e+03
 4.2268600e+00   7.7422897e+03
 4.2315402e+00   7.7935435e+03
 4.2362199e+00   7.6643365e+03
 4.2409000e+00   7.7657936e+03
 4.2455802e+00   7.7234081e+03
 4.2502599e+00   7.6277196e+03
 4.2549400e+00   7.7850399e+03
 4.2596202e+00   7.7026210e+03
 4.2642999e+00   7.7726869e+03
 4.2689800e+00   7.8428406e+03
 4.2736602e+00   7.8482328e+03
 4.2783399e+00   7.8697515e+03
 4.2830200e+00   7.9670107e+03
 4.2877002e+00   7.9582761e+03
 4.2923799e+00   8.0800589e+03
 4.2970600e+00   8.1425805e+03
 4.3017402e+00   8.1589553e+03
 4.3064198e+00   8.2107303e+03
 4.3111000e+00   8.2723751e+03
 4.3157802e+00   8.3629091e+03
 4.3204598e+00   8.4700521e+03
 4.3251400e+00   8.4768002e+03
 4.3298202e+00   8.6248976e+03
 4.3344998e+00   8.6058215e+03
 4.3391800e+00   8.7094584e+03
 4.3438601e+00   8.8223633e+03
 4.3485398e+00   8.8555391e+03
 4.3532200e+00   8.9088004e+03
 4.3579001e+00   8.9718189e+03
 4.3625798e+00   8.8492222e+03
 4.3672600e+00   8.8915235e+03
 4.3719401e+00   8.8064112e+03
 4.3766198e+00   8.7718925e+03
 4.3813000e+00   8.7059700e+03
 4.3859801e+00   8.6483822e+03
 4.3906598e+00   8.5092254e+03
 4.3953400e+00   8.5068004e+03
 4.4000201e+00   8.3333411e+03
 4.4046998e+00   8.3633993e+03
 4.4093800e+00   8.2377259e+03
 4.4140601e+00   8.1811065e+03
 4.4187398e+00   8.1353389e+03
 4.4234200e+00   8.0556477e+03
 4.4281001e+00   7.9651649e+03
 4.4327798e+00   8.0048340e+03
 4.4374599e+00   7.8959595e+03
 4.4421401e+00   7.8726993e+03
 4.4468198e+00   7.8498212e+03
 4.4514999e+00   7.7748830e+03
 4.4561801e+00   7.7946727e+03
 4.4608598e+00   7.7679892e+03
 4.4655399e+00   7.7296990e+03
 4.4702201e+00   7.7535702e+03
 4.4748998e+00   7.7072146e+03
 4.4795799e+00   7.6694240e+03
 4.4842601e+00   7.7125290e+03
 4.4889398e+00   7.6508832e+03
 4.4936199e+00   7.5787456e+03
 4.4983001e+00   7.5717337e+03
 4.5029802e+00   7.4650458e+03
 4.5076599e+00   7.4277894e+03
 4.5123401e+00   7.3527309e+03
 4.5170202e+00   7.2511465e+03
 4.5216999e+00   7.2088228e+03
 4.5263801e+00   7.1248442e+03
 4.5310602e+00   7.0780078e+03
 4.5357399e+00   7.0592455e+03
 4.5404201e+00   7.0163101e+03
 4.5451002e+00   6.9794422e+03
 4.5497799e+00   6.9584828e+03
 4.5544600e+00   6.9229032e+03
 4.5591402e+00   6.9323845e+03
 4.5638199e+00   6.8934547e+03
 4.5685000e+00   6.8426289e+03
 4.5731802e+00   6.8767957e+03
 4.5778599e+00   6.8452403e+03
 4.5825400e+00   6.8302690e+03
 4.5872202e+00   6.8138321e+03
 4.5918999e+00   6.8023238e+03
 4.5965800e+00   6.7841140e+03
 4.6012602e+00   6.7389487e+03
 4.6059399e+00   6.7408323e+03
 4.6106200e+00   6.7350625e+03
 4.6153002e+00   6.7171509e+03
 4.6199799e+00   6.6702935e+03
 4.6246600e+00   6.6791078e+03
 4.6293402e+00   6.6652514e+03
 4.6340199e+00   6.6484546e+03
 4.6387000e+00   6.6488867e+03
 4.6433802e+00   6.6255236e+03
 4.6480598e+00   6.6220431e+03
 4.6527400e+00   6.5898243e+03
 4.6574202e+00   6.5617246e+03
 4.6620998e+00   6.5936846e+03
 4.6667800e+00   6.5706615e+03
 4.6714602e+00   6.5528887e+03
 4.6761398e+00   6.5546171e+03
 4.6808200e+00   6.5411104e+03
 4.6855001e+00   6.5385583e+03
 4.6901798e+00   6.5548475e+03
 4.6948600e+00   6.5589263e+03
 4.6995401e+00   6.5744956e+03
 4.7042198e+00   6.6070243e+03
 4.7089000e+00   6.6141620e+03
 4.7135801e+00   6.6898614e+03
 4.7182598e+00   6.7337566e+03
 4.7229400e+00   6.8580927e+03
 4.7276201e+00   6.9213230e+03
 4.7322998e+00   7.0167690e+03
 4.7369800e+00   7.1060054e+03
 4.7416601e+00   7.2014208e+03
 4.7463398e+00   7.2750398e+03
 4.7510200e+00   7.3590626e+03
 4.7557001e+00   7.4460089e+03
 4.7603798e+00   7.5558139e+03
 4.7650599e+00   7.6841489e+03
 4.7697401e+00   7.8366711e+03
 4.7744198e+00   8.0220893e+03
 4.7790999e+00   8.2311950e+03
 4.7837801e+00   8.4588106e+03
 4.7884598e+00   8.7249335e+03
 4.7931399e+00   8.9434000e+03
 4.7978201e+00   9.1343197e+03
 4.8024998e+00   9.2829455e+03
 4.8071799e+00   9.3650698e+03
 4.8118601e+00   9.3319698e+03
 4.8165398e+00   9.2141597e+03
 4.8212199e+00   9.0695516e+03
 4.8259001e+00   8.8128010e+03
 4.8305802e+00   8.5689930e+03
 4.8352599e+00   8.2806298e+03
 4.8399401e+00   8.0398509e+03
 4.8446202e+00   7.7731202e+03
 4.8492999e+00   7.5511716e+03
 4.8539801e+00   7.3604983e+03
 4.8586602e+00   7.1780782e+03
 4.8633399e+00   7.0481253e+03
 4.8680201e+00   6.9802647e+03
 4.8727002e+00   6.9130436e+03
 4.8773799e+00   6.9331291e+03
 4.8820601e+00   6.9820293e+03
 4.8867402e+00   7.0508456e+03
 4.8914199e+00   7.1900791e+03
 4.8961000e+00   7.3983477e+03
 4.9007802e+00   7.5450325e+03
 4.9054599e+00   7.7635894e+03
 4.9101400e+00   7.9403669e+03
 4.9148202e+00   8.1183252e+03
 4.9194999e+00   8.2504244e+03
 4.9241800e+00   8.3640198e+03
 4.9288602e+00   8.4417505e+03
 4.9335399e+00   8.4744764e+03
 4.9382200e+00   8.5053615e+03
 4.9429002e+00   8.4725619e+03
 4.9475799e+00   8.4855193e+03
 4.9522600e+00   8.4244773e+03
 4.9569402e+00   8.3948016e+03
 4.9616199e+00   8.3291949e+03
 4.9663000e+00   8.2785061e+03
 4.9709802e+00   8.2147518e+03
 4.9756598e+00   8.1540886e+03
 4.9803400e+00   8.0664697e+03
 4.9850202e+00   8.0065119e+03
 4.9896998e+00   7.8775715e+03
 4.9943800e+00   7.7815316e+03
 4.9990602e+00   7.6659392e+03
 5.0037398e+00   7.5218572e+03
 5.0084200e+00   7.3846485e+03
 5.0131001e+00   7.2178750e+03
 5.0177798e+00   7.0879317e+03
 5.0224600e+00   6.9619257e+03
 5.0271401e+00   6.8150539e+03
 5.0318198e+00   6.6963680e+03
 5.0365000e+00   6.6311139e+03
 5.0411801e+00   6.5044331e+03
 5.0458598e+00   6.4445542e+03
 5.0505400e+00   6.3878479e+03
 5.0552201e+00   6.3745777e+03
 5.0598998e+00   6.3396380e+03
 5.0645800e+00   6.3562314e+03
 5.0692601e+00   6.3907113e+03
 5.0739398e+00   6.4337279e+03
 5.0786200e+00   6.5220650e+03
 5.0833001e+00   6.6804234e+03
 5.0879798e+00   6.8078064e+03
 5.0926600e+00   7.1971368e+03
 5.0973401e+00   7.4567976e+03
 5.1020198e+00   7.9290018e+03
 5.1066999e+00   9.1425025e+03
 5.1113801e+00   1.0099370e+04
 5.1160598e+00   1.2342549e+04
 5.1207399e+00   1.6605817e+04
 5.1254201e+00   2.0383829e+04
 5.1300998e+00   2.9726105e+04
 5.1347799e+00   3.8616556e+04
 5.1394601e+00   4.3028010e+04
 5.1441398e+00   5.0679610e+04
 5.1488199e+00   4.6866229e+04
 5.1535001e+00   4.0899310e+04
 5.1581802e+00   3.5398821e+04
 5.1628599e+00   2.5438020e+04
 5.1675401e+00   1.8879095e+04
 5.1722202e+00   1.4431869e+04
 5.1768999e+00   1.0664280e+04
 5.1815801e+00   9.1917854e+03
 5.1862602e+00   7.8719161e+03
 5.1909399e+00   7.1686108e+03
 5.1956201e+00   6.9292991e+03
 5.2003002e+00   6.5947275e+03
 5.2049799e+00   6.4126330e+03
 5.2096601e+00   6.3312092e+03
 5.2143402e+00   6.2005554e+03
 5.2190199e+00   6.1518726e+03
 5.2237000e+00   6.0906731e+03
 5.2283802e+00   6.0317412e+03
 5.2330599e+00   5.9970160e+03
 5.2377400e+00   5.9505521e+03
 5.2424202e+00   5.9271604e+03
 5.2470999e+00   5.9213011e+03
 5.2517800e+00   5.8768909e+03
 5.2564602e+00   5.8748927e+03
 5.2611399e+00   5.8699086e+03
 5.2658200e+00   5.8502722e+03
 5.2705002e+00   5.8424312e+03
 5.2751799e+00   5.8046665e+03
 5.2798600e+00   5.8174178e+03
 5.2845402e+00   5.7926312e+03
 5.2892199e+00   5.7931761e+03
 5.2939000e+00   5.7805809e+03
 5.2985802e+00   5.7847602e+03
 5.3032598e+00   5.7695979e+03
 5.3079400e+00   5.7839913e+03
 5.3126202e+00   5.7707443e+03
 5.3172998e+00   5.7798966e+03
 5.3219800e+00   5.7667440e+03
 5.3266602e+00   5.7631615e+03
 5.3313398e+00   5.7452825e+03
 5.3360200e+00   5.7445272e+03
 5.3407001e+00   5.7464827e+03
 5.3453798e+00   5.7555680e+03
 5.3500600e+00   5.7467716e+03
 5.3547401e+00   5.7472957e+03
 5.3594198e+00   5.7489913e+03
 5.3641000e+00   5.7432103e+03
 5.3687801e+00   5.7515666e+03
 5.3734598e+00   5.7481671e+03
 5.3781400e+00   5.7628744e+03
 5.3828201e+00   5.7718875e+03
 5.3874998e+00   5.7625852e+03
 5.3921800e+00   5.7886298e+03
 5.3968601e+00   5.7814995e+03
 5.4015398e+00   5.7861332e+03
 5.4062200e+00   5.8131815e+03
 5.4109001e+00   5.8181793e+03
 5.4155798e+00   5.8234789e+03
 5.4202600e+00   5.8416321e+03
 5.4249401e+00   5.8602130e+03
 5.4296198e+00   5.8755636e+03
 5.4342999e+00   5.9112563e+03
 5.4389801e+00   5.9102492e+03
 5.4436598e+00   5.9454365e+03
 5.4483399e+00   5.9599592e+03
 5.4530201e+00   6.0031099e+03
 5.4576998e+00   6.0546542e+03
 5.4623799e+00   6.1112230e+03
 5.4670601e+00   6.1649530e+03
 5.4717398e+00   6.2444100e+03
 5.4764199e+00   6.3201699e+03
 5.4811001e+00   6.4402133e+03
 5.4857798e+00   6.5678952e+03
 5.4904599e+00   6.6959867e+03
 5.4951401e+00   6.8855120e+03
 5.4998202e+00   7.1154548e+03
 5.5044999e+00   7.4454827e+03
 5.5091801e+00   7.8126824e+03
 5.5138602e+00   8.2552188e+03
 5.5185399e+00   8.8176831e+03
 5.5232201e+00   9.4571896e+03
 5.5279002e+00   1.0230649e+04
 5.5325799e+00   1.1148687e+04
 5.5372601e+00   1.2077811e+04
 5.5419402e+00   1.3160514e+04
 5.5466199e+00   1.4091700e+04
 5.5513000e+00   1.4954988e+04
 5.5559802e+00   1.5623290e+04
 5.5606599e+00   1.6025465e+04
 5.5653400e+00   1.6143186e+04
 5.5700202e+00   1.6018201e+04
 5.5746999e+00   1.5655090e+04
 5.5793800e+00   1.5104814e+04
 5.5840602e+00   1.4435575e+04
 5.5887399e+00   1.3687096e+04
 5.5934200e+00   1.2957872e+04
 5.5981002e+00   1.2213209e+04
 5.6027799e+00   1.1548327e+04
 5.6074600e+00   1.0933486e+04
 5.6121402e+00   1.0369911e+04
 5.6168199e+00   9.8867131e+03
 5.6215000e+00   9.4539338e+03
 5.6261802e+00   9.0589316e+03
 5.6308599e+00   8.7191650e+03
 5.6355400e+00   8.4064962e+03
 5.6402202e+00   8.1193714e+03
 5.6448998e+00   7.8585188e+03
 5.6495800e+00   7.6240488e+03
 5.6542602e+00   7.3913996e+03
 5.6589398e+00   7.2040221e+03
 5.6636200e+00   7.0043499e+03
 5.6683002e+00   6.8250460e+03
 5.6729798e+00   6.6779228e+03
 5.6776600e+00   6.5582611e+03
 5.6823401e+00   6.4246370e+03
 5.6870198e+00   6.3515845e+03
 5.6917000e+00   6.2538950e+03
 5.6963801e+00   6.1905709e+03
 5.7010598e+00   6.1208902e+03
 5.7057400e+00   6.0712650e+03
 5.7104201e+00   6.0199576e+03
 5.7150998e+00   5.9708295e+03
 5.7197800e+00   5.9561657e+03
 5.7244601e+00   5.9270890e+03
 5.7291398e+00   5.9048218e+03
 5.7338200e+00   5.8920327e+03
 5.7385001e+00   5.8991323e+03
 5.7431798e+00   5.8880470e+03
 5.7478600e+00   5.9006982e+03
 5.7525401e+00   5.8930825e+03
 5.7572198e+00   5.8888657e+03
 5.7618999e+00   5.9024109e+03
 5.7665801e+00   5.8872374e+03
 5.7712598e+00   5.8643999e+03
 5.7759399e+00   5.8618522e+03
 5.7806201e+00   5.8429159e+03
 5.7852998e+00   5.8290856e+03
 5.7899799e+00   5.8063597e+03
 5.7946601e+00   5.7885133e+03
 5.7993398e+00   5.7878092e+03
 5.8040199e+00   5.7820272e+03
 5.8087001e+00   5.7735583e+03
 5.8133798e+00   5.7621965e+03
 5.8180599e+00   5.7397138e+03
 5.8227401e+00   5.7500161e+03
 5.8274202e+00   5.7543155e+03
 5.8320999e+00   5.7399044e+03
 5.8367801e+00   5.7590115e+03
 5.8414602e+00   5.7510849e+03
 5.8461399e+00   5.7680931e+03
 5.8508201e+00   5.7845804e+03
 5.8555002e+00   5.7929915e+03
 5.8601799e+00   5.8089899e+03
 5.8648601e+00   5.8454727e+03
 5.8695402e+00   5.8688909e+03
 5.8742199e+00   5.8980821e+03
 5.8789001e+00   5.9133769e+03
 5.8835802e+00   5.9752886e+03
 5.8882599e+00   6.0182456e+03
 5.8929400e+00   6.0789470e+03
 5.8976202e+00   6.1910286e+03
 5.9022999e+00   6.3169349e+03
 5.9069800e+00   6.5684096e+03
 5.9116602e+00   6.9236082e+03
 5.9163399e+00   7.4312332e+03
 5.9210200e+00   8.2001332e+03
 5.9257002e+00   9.3322143e+03
 5.9303799e+00   1.0754584e+04
 5.9350600e+00   1.2066603e+04
 5.9397402e+00   1.2752192e+04
 5.9444199e+00   1.2793066e+04
 5.9491000e+00   1.2366012e+04
 5.9537802e+00   1.1367498e+04
 5.9584599e+00   1.0162786e+04
 5.9631400e+00   8.9510194e+03
 5.9678202e+00   8.1060595e+03
 5.9724998e+00   7.4744784e+03
 5.9771800e+00   7.1253124e+03
 5.9818602e+00   6.9185664e+03
 5.9865398e+00   6.8173495e+03
 5.9912200e+00   6.7245280e+03
 5.9959002e+00   6.6654146e+03
 6.0005798e+00   6.6224053e+03
 6.0052600e+00   6.5371908e+03
 6.0099401e+00   6.5039045e+03
 6.0146198e+00   6.4465799e+03
 6.0193000e+00   6.3611594e+03
 6.0239801e+00   6.3316625e+03
 6.0286598e+00   6.2616474e+03
 6.0333400e+00   6.1960605e+03
 6.0380201e+00   6.1656156e+03
 6.0426998e+00   6.1003803e+03
 6.0473800e+00   6.0644284e+03
 6.0520601e+00   6.0289858e+03
 6.0567398e+00   5.9676703e+03
 6.0614200e+00   5.9557185e+03
 6.0661001e+00   5.9013025e+03
 6.0707798e+00   5.8767602e+03
 6.0754600e+00   5.8798987e+03
 6.0801401e+00   5.8534298e+03
 6.0848198e+00   5.8139674e+03
 6.0895000e+00   5.8202750e+03
 6.0941801e+00   5.7856155e+03
 6.0988598e+00   5.7894442e+03
 6.1035399e+00   5.7886012e+03
 6.1082201e+00   5.7641966e+03
 6.1128998e+00   5.7720640e+03
 6.1175799e+00   5.7652014e+03
 6.1222601e+00   5.7444715e+03
 6.1269398e+00   5.7509329e+03
 6.1316199e+00   5.7511594e+03
 6.1363001e+00   5.7507437e+03
 6.1409798e+00   5.7536391e+03
 6.1456599e+00   5.7234580e+03
 6.1503401e+00   5.7525107e+03
 6.1550202e+00   5.7315460e+03
 6.1596999e+00   5.7456375e+03
 6.1643801e+00   5.7427987e+03
 6.1690602e+00   5.7397529e+03
 6.1737399e+00   5.7337133e+03
 6.1784201e+00   5.7594493e+03
 6.1831002e+00   5.7372446e+03
 6.1877799e+00   5.7691398e+03
 6.1924601e+00   5.7441321e+03
 6.1971402e+00   5.7564639e+03
 6.2018199e+00   5.7589504e+03
 6.2065001e+00   5.7327414e+03
 6.2111802e+00   5.7595237e+03
 6.2158599e+00   5.7775711e+03
 6.2205400e+00   5.7554385e+03
 6.2252202e+00   5.7768100e+03
 6.2298999e+00   5.7820647e+03
 6.2345800e+00   5.7518107e+03
 6.2392602e+00   5.7731168e+03
 6.2439399e+00   5.7590833e+03
 6.2486200e+00   5.7645737e+03
 6.2533002e+00   5.7729815e+03
 6.2579799e+00   5.7788727e+03
 6.2626600e+00   5.7727727e+03
 6.2673402e+00   5.7956306e+03
 6.2720199e+00   5.7628380e+03
 6.2767000e+00   5.8139277e+03
 6.2813802e+00   5.7842590e+03
 6.2860599e+00   5.7901282e+03
 6.2907400e+00   5.7962735e+03
 6.2954202e+00   5.8054619e+03
 6.3000998e+00   5.7955783e+03
 6.3047800e+00   5.8190572e+03
 6.3094602e+00   5.7959895e+03
 6.3141398e+00   5.8230986e+03
 6.3188200e+00   5.8217249e+03
 6.3235002e+00   5.8117572e+03
 6.3281798e+00   5.8430536e+03
 6.3328600e+00   5.8396369e+03
 6.3375401e+00   5.8737340e+03
 6.3422198e+00   5.8756486e+03
 6.3469000e+00   5.8459798e+03
 6.3515801e+00   5.8638132e+03
 6.3562598e+00   5.8880094e+03
 6.3609400e+00   5.8484510e+03
 6.3656201e+00   5.8830273e+03
 6.3702998e+00   5.8424620e+03
 6.3749800e+00   5.8606860e+03
 6.3796601e+00   5.8496258e+03
 6.3843398e+00   5.8877214e+03
 6.3890200e+00   5.8774241e+03
 6.3937001e+00   5.8792610e+03
 6.3983798e+00   5.8602127e+03
 6.4030600e+00   5.8841573e+03
 6.4077401e+00   5.8948389e+03
 6.4124198e+00   5.8933272e+03
 6.4171000e+00   5.9106837e+03
 6.4217801e+00   5.8952110e+03
 6.4264598e+00   5.9140100e+03
 6.4311399e+00   5.9038724e+03
 6.4358201e+00   5.9287167e+03
 6.4404998e+00   5.9278673e+03
 6.4451799e+00   5.9593515e+03
 6.4498601e+00   5.9209429e+03
 6.4545398e+00   5.9267067e+03
 6.4592199e+00   5.9191886e+03
 6.4639001e+00   5.9324536e+03
 6.4685798e+00   5.9520559e+03
 6.4732599e+00   5.9057340e+03
 6.4779401e+00   5.9295520e+03
 6.4826198e+00   5.9273284e+03
 6.4872999e+00   5.9391324e+03
 6.4919801e+00   5.9490129e+03
 6.4966602e+00   5.9737518e+03
 6.5013399e+00   5.9370836e+03
 6.5060201e+00   5.9834046e+03
 6.5107002e+00   5.9476715e+03
 6.5153799e+00   5.9659746e+03
 6.5200601e+00   5.9911741e+03
 6.5247402e+00   5.9978565e+03
 6.5294199e+00   5.9829216e+03
 6.5341001e+00   6.0219383e+03
 6.5387802e+00   6.0125508e+03
 6.5434599e+00   6.0343577e+03
 6.5481400e+00   6.0461429e+03
 6.5528202e+00   6.0365322e+03
 6.5574999e+00   6.0680063e+03
 6.5621800e+00   6.0396830e+03
 6.5668602e+00   6.0633196e+03
 6.5715399e+00   6.0829763e+03
 6.5762200e+00   6.0689147e+03
 6.5809002e+00   6.1010282e+03
 6.5855799e+00   6.0983804e+03
 6.5902600e+00   6.0652142e+03
 6.5949402e+00   6.1227536e+03
 6.5996199e+00   6.0976677e+03
 6.6043000e+00   6.1373707e+03
 6.6089802e+00   6.1221571e+03
 6.6136599e+00   6.1322011e+03
 6.6183400e+00   6.1624998e+03
 6.6230202e+00   6.1542156e+03
 6.6276999e+00   6.1525114e+03
 6.6323800e+00   6.1708882e+03
 6.6370602e+00   6.1766892e+03
 6.6417398e+00   6.1597417e+03
 6.6464200e+00   6.2443277e+03
 6.6511002e+00   6.2041790e+03
 6.6557798e+00   6.2286895e+03
 6.6604600e+00   6.2558839e+03
 6.6651402e+00   6.2784964e+03
 6.6698198e+00   6.2583333e+03
 6.6745000e+00   6.2781215e+03
 6.6791801e+00   6.2749084e+03
 6.6838598e+00   6.3294317e+03
 6.6885400e+00   6.2780350e+03
 6.6932201e+00   6.3255665e+03
 6.6978998e+00   6.3029486e+03
 6.7025800e+00   6.3340286e+03
 6.7072601e+00   6.3424984e+03
 6.7119398e+00   6.3486257e+03
 6.7166200e+00   6.3601790e+03
 6.7213001e+00   6.3708401e+03
 6.7259798e+00   6.3909789e+03
 6.7306600e+00   6.3888747e+03
 6.7353401e+00   6.4700044e+03
 6.7400198e+00   6.4288701e+03
 6.7447000e+00   6.4727299e+03
 6.7493801e+00   6.4528899e+03
 6.7540598e+00   6.4955038e+03
 6.7587399e+00   6.4952692e+03
 6.7634201e+00   6.5112667e+03
 6.7680998e+00   6.4914432e+03
 6.7727799e+00   6.5976451e+03
 6.7774601e+00   6.5055126e+03
 6.7821398e+00   6.5763072e+03
 6.7868199e+00   6.5611528e+03
 6.7915001e+00   6.5894090e+03
 6.7961798e+00   6.5695763e+03
 6.8008599e+00   6.5908852e+03
 6.8055401e+00   6.6031169e+03
 6.8102198e+00   6.6320928e+03
 6.8148999e+00   6.6167207e+03
 6.8195801e+00   6.6402277e+03
 6.8242602e+00   6.6774879e+03
 6.8289399e+00   6.6368994e+03
 6.8336201e+00   6.7077434e+03
 6.8383002e+00   6.6836278e+03
 6.8429799e+00   6.7112402e+03
 6.8476601e+00   6.7881641e+03
 6.8523402e+00   6.7699614e+03
 6.8570199e+00   6.7958801e+03
 6.8617001e+00   6.8544916e+03
 6.8663802e+00   6.8906036e+03
 6.8710599e+00   6.9250914e+03
 6.8757401e+00   6.9730906e+03
 6.8804202e+00   7.0088460e+03
 6.8850999e+00   7.0467342e+03
 6.8897800e+00   7.1050212e+03
 6.8944602e+00   7.1394104e+03
 6.8991399e+00   7.2521321e+03
 6.9038200e+00   7.2513535e+03
 6.9085002e+00   7.3618167e+03
 6.9131799e+00   7.3555513e+03
 6.9178600e+00   7.5026212e+03
 6.9225402e+00   7.5074290e+03
 6.9272199e+00   7.5963771e+03
 6.9319000e+00   7.6187091e+03
 6.9365802e+00   7.6948569e+03
 6.9412599e+00   7.6646637e+03
 6.9459400e+00   7.7921723e+03
 6.9506202e+00   7.7931194e+03
 6.9552999e+00   7.8612090e+03
 6.9599800e+00   7.9241032e+03
 6.9646602e+00   7.9508607e+03
 6.9693398e+00   7.9294004e+03
 6.9740200e+00   8.0264691e+03
 6.9787002e+00   8.0373981e+03
 6.9833798e+00   8.0522308e+03
 6.9880600e+00   8.1119910e+03
 6.9927402e+00   8.1135340e+03
 6.9974198e+00   8.1400384e+03
 7.0021000e+00   8.1354179e+03
 7.0067801e+00   8.2014898e+03
 7.0114598e+00   8.2090673e+03
 7.0161400e+00   8.1890682e+03
 7.0208201e+00   8.1380628e+03
 7.0254998e+00   8.1606196e+03
 7.0301800e+00   8.0554418e+03
 7.0348601e+00   8.0496677e+03
 7.0395398e+00   7.9300839e+03
 7.0442200e+00   7.8815773e+03
 7.0489001e+00   7.7848264e+03
 7.0535798e+00   7.7354653e+03
 7.0582600e+00   7.6267749e+03
 7.0629401e+00   7.6353545e+03
 7.0676198e+00   7.4790072e+03
 7.0723000e+00   7.4518453e+03
 7.0769801e+00   7.3073457e+03
 7.0816598e+00   7.2309824e+03
 7.0863400e+00   7.1578283e+03
 7.0910201e+00   7.0050909e+03
 7.0956998e+00   6.9613807e+03
 7.1003799e+00   6.9210500e+03
 7.1050601e+00   6.8553494e+03
 7.1097398e+00   6.7902715e+03
 7.1144199e+00   6.7861251e+03
 7.1191001e+00   6.7367305e+03
 7.1237798e+00   6.7606065e+03
 7.1284599e+00   6.6975937e+03
 7.1331401e+00   6.6816771e+03
 7.1378198e+00   6.6526196e+03
 7.1424999e+00   6.6633294e+03
 7.1471801e+00   6.6144207e+03
 7.1518602e+00   6.6361881e+03
 7.1565399e+00   6.5986496e+03
 7.1612201e+00   6.6064098e+03
 7.1659002e+00   6.5636877e+03
 7.1705799e+00   6.5811770e+03
 7.1752601e+00   6.5917004e+03
 7.1799402e+00   6.5589391e+03
 7.1846199e+00   6.5542255e+03
 7.1893001e+00   6.5406040e+03
 7.1939802e+00   6.5465997e+03
 7.1986599e+00   6.5364380e+03
 7.2033401e+00   6.5507542e+03
 7.2080202e+00   6.5223435e+03
 7.2126999e+00   6.5506305e+03
 7.2173800e+00   6.4981681e+03
 7.2220602e+00   6.5080145e+03
 7.2267399e+00   6.5121911e+03
 7.2314200e+00   6.5085675e+03
 7.2361002e+00   6.5090413e+03
 7.2407799e+00   6.5120039e+03
 7.2454600e+00   6.5044756e+03
 7.2501402e+00   6.5412929e+03
 7.2548199e+00   6.5386582e+03
 7.2595000e+00   6.5335646e+03
 7.2641802e+00   6.5458621e+03
 7.2688599e+00   6.5462351e+03
 7.2735400e+00   6.5459221e+03
 7.2782202e+00   6.5538675e+03
 7.2828999e+00   6.5424962e+03
 7.2875800e+00   6.5635295e+03
 7.2922602e+00   6.5384217e+03
 7.2969398e+00   6.5371151e+03
 7.3016200e+00   6.5538487e+03
 7.3063002e+00   6.5530318e+03
 7.3109798e+00   6.5634113e+03
 7.3156600e+00   6.5699600e+03
 7.3203402e+00   6.6020853e+03
 7.3250198e+00   6.6203724e+03
 7.3297000e+00   6.6310959e+03
 7.3343801e+00   6.6327676e+03
 7.3390598e+00   6.6788814e+03
 7.3437400e+00   6.6931937e+03
 7.3484201e+00   6.7042402e+03
 7.3530998e+00   6.7192911e+03
 7.3577800e+00   6.7382841e+03
 7.3624601e+00   6.7525490e+03
 7.3671398e+00   6.7530185e+03
 7.3718200e+00   6.7818460e+03
 7.3765001e+00   6.7907182e+03
 7.3811798e+00   6.7808152e+03
 7.3858600e+00   6.7940104e+03
 7.3905401e+00   6.7880958e+03
 7.3952198e+00   6.7899571e+03
 7.3999000e+00   6.8010187e+03
 7.4045801e+00   6.8014027e+03
 7.4092598e+00   6.8068540e+03
 7.4139400e+00   6.8314645e+03
 7.4186201e+00   6.8101142e+03
 7.4232998e+00   6.8197322e+03
 7.4279799e+00   6.8325930e+03
 7.4326601e+00   6.8365078e+03
 7.4373398e+00   6.8506104e+03
 7.4420199e+00   6.8681223e+03
 7.4467001e+00   6.8672154e+03
 7.4513798e+00   6.8951304e+03
 7.4560599e+00   6.9004541e+03
 7.4607401e+00   6.9295909e+03
 7.4654198e+00   6.9532940e+03
 7.4700999e+00   6.9607911e+03
 7.4747801e+00   7.0006188e+03
 7.4794598e+00   7.0210103e+03
 7.4841399e+00   7.0590031e+03
 7.4888201e+00   7.0906971e+03
 7.4935002e+00   7.1166623e+03
 7.4981799e+00   7.1600355e+03
 7.5028601e+00   7.2311271e+03
 7.5075402e+00   7.2606905e+03
 7.5122199e+00   7.3422552e+03
 7.5169001e+00   7.3698639e+03
 7.5215802e+00   7.4220944e+03
 7.5262599e+00   7.5082026e+03
 7.5309401e+00   7.5463899e+03
 7.5356202e+00   7.6232644e+03
 7.5402999e+00   7.6665359e+03
 7.5449800e+00   7.7273183e+03
 7.5496602e+00   7.7569254e+03
 7.5543399e+00   7.8171184e+03
 7.5590200e+00   7.8305828e+03
 7.5637002e+00   7.8890623e+03
 7.5683799e+00   7.8761470e+03
 7.5730600e+00   7.9091368e+03
 7.5777402e+00   7.9073953e+03
 7.5824199e+00   7.9118077e+03
 7.5871000e+00   7.8805938e+03
 7.5917802e+00   7.8703124e+03
 7.5964599e+00   7.8145026e+03
 7.6011400e+00   7.7666408e+03
 7.6058202e+00   7.6770010e+03
 7.6104999e+00   7.5762491e+03
 7.6151800e+00   7.4677218e+03
 7.6198602e+00   7.2850936e+03
 7.6245399e+00   7.1938184e+03
 7.6292200e+00   7.0183562e+03
 7.6339002e+00   6.9288138e+03
 7.6385798e+00   6.7722708e+03
 7.6432600e+00   6.6698663e+03
 7.6479402e+00   6.5526232e+03
 7.6526198e+00   6.4911952e+03
 7.6573000e+00   6.4082538e+03
 7.6619802e+00   6.3700864e+03
 7.6666598e+00   6.3067117e+03
 7.6713400e+00   6.2716957e+03
 7.6760201e+00   6.2136699e+03
 7.6806998e+00   6.2083182e+03
 7.6853800e+00   6.1753933e+03
 7.6900601e+00   6.1347748e+03
 7.6947398e+00   6.1266800e+03
 7.6994200e+00   6.0708903e+03
 7.7041001e+00   6.0864332e+03
 7.7087798e+00   6.0636306e+03
 7.7134600e+00   6.0501974e+03
 7.7181401e+00   6.0208144e+03
 7.7228198e+00   6.0416520e+03
 7.7275000e+00   5.9874372e+03
 7.7321801e+00   6.0058133e+03
 7.7368598e+00   5.9813448e+03
 7.7415400e+00   5.9510489e+03
 7.7462201e+00   5.9575834e+03
 7.7508998e+00   5.9226835e+03
 7.7555799e+00   5.8986029e+03
 7.7602601e+00   5.9126776e+03
 7.7649398e+00   5.8756566e+03
 7.7696199e+00   5.8635795e+03
 7.7743001e+00   5.8800148e+03
 7.7789798e+00   5.8421200e+03
 7.7836599e+00   5.8580713e+03
 7.7883401e+00   5.8313834e+03
 7.7930198e+00   5.8203907e+03
 7.7976999e+00   5.8229434e+03
 7.8023801e+00   5.7946717e+03
 7.8070598e+00   5.7781623e+03
 7.8117399e+00   5.8056702e+03
 7.8164201e+00   5.7567606e+03
 7.8211002e+00   5.7744032e+03
 7.8257799e+00   5.7613700e+03
 7.8304601e+00   5.7276204e+03
 7.8351402e+00   5.7420746e+03
 7.8398199e+00   5.7379247e+03
 7.8445001e+00   5.7098340e+03
 7.8491802e+00   5.7265033e+03
 7.8538599e+00   5.6953779e+03
 7.8585401e+00   5.6964131e+03
 7.8632202e+00   5.7122670e+03
 7.8678999e+00   5.6654808e+03
 7.8725801e+00   5.6863689e+03
 7.8772602e+00   5.6654912e+03
 7.8819399e+00   5.6595805e+03
 7.8866200e+00   5.6548495e+03
 7.8913002e+00   5.6621291e+03
 7.8959799e+00   5.6373036e+03
 7.9006600e+00   5.6479290e+03
 7.9053402e+00   5.5980780e+03
 7.9100199e+00   5.6424568e+03
 7.9147000e+00   5.6034337e+03
 7.9193802e+00   5.5968207e+03
 7.9240599e+00   5.5852742e+03
 7.9287400e+00   5.5864409e+03
 7.9334202e+00   5.5925921e+03
 7.9380999e+00   5.5792431e+03
 7.9427800e+00   5.5489329e+03
 7.9474602e+00   5.5662993e+03
 7.9521399e+00   5.5637703e+03
 7.9568200e+00   5.5541853e+03
 7.9615002e+00   5.5656501e+03
 7.9661798e+00   5.5338096e+03
 7.9708600e+00   5.5352822e+03
 7.9755402e+00   5.5307983e+03
 7.9802198e+00   5.5215592e+03
 7.9849000e+00   5.5168861e+03
 7.9895802e+00   5.5388431e+03
 7.9942598e+00   5.4969258e+03
 7.9989400e+00   5.5268428e+03
 8.0036201e+00   5.4923420e+03
 8.0082998e+00   5.4870100e+03
 8.0129805e+00   5.4917203e+03
 8.0176601e+00   5.4931191e+03
 8.0223398e+00   5.4890211e+03
 8.0270205e+00   5.4942291e+03
 8.0317001e+00   5.4855665e+03
 8.0363798e+00   5.5132049e+03
 8.0410604e+00   5.5008788e+03
 8.0457401e+00   5.4967381e+03
 8.0504198e+00   5.5409073e+03
 8.0551004e+00   5.5084456e+03
 8.0597801e+00   5.5540214e+03
 8.0644598e+00   5.5750569e+03
 8.0691404e+00   5.6182658e+03
 8.0738201e+00   5.6867671e+03
 8.0784998e+00   5.7298914e+03
 8.0831804e+00   5.7740676e+03
 8.0878601e+00   5.8678243e+03
 8.0925398e+00   5.8873159e+03
 8.0972204e+00   5.9731374e+03
 8.1019001e+00   6.0368431e+03
 8.1065798e+00   6.0635647e+03
 8.1112604e+00   6.1198339e+03
 8.1159401e+00   6.1331023e+03
 8.1206198e+00   6.1350086e+03
 8.1253004e+00   6.1842370e+03
 8.1299801e+00   6.1671087e+03
 8.1346598e+00   6.1865522e+03
 8.1393404e+00   6.1981784e+03
 8.1440201e+00   6.1726032e+03
 8.1486998e+00   6.2283459e+03
 8.1533804e+00   6.2029519e+03
 8.1580601e+00   6.2595087e+03
 8.1627398e+00   6.2854609e+03
 8.1674204e+00   6.3196165e+03
 8.1721001e+00   6.3684218e+03
 8.1767797e+00   6.4354306e+03
 8.1814604e+00   6.4619727e+03
 8.1861401e+00   6.5769380e+03
 8.1908197e+00   6.6373504e+03
 8.1955004e+00   6.7289839e+03
 8.2001801e+00   6.8148001e+03
 8.2048597e+00   6.8956082e+03
 8.2095404e+00   6.9924136e+03
 8.2142200e+00   7.0775698e+03
 8.2188997e+00   7.1488224e+03
 8.2235804e+00   7.2082717e+03
 8.2282600e+00   7.2671940e+03
 8.2329397e+00   7.2755356e+03
 8.2376204e+00   7.3018117e+03
 8.2423000e+00   7.2744700e+03
 8.2469797e+00   7.2427205e+03
 8.2516603e+00   7.1503313e+03
 8.2563400e+00   7.0902861e+03
 8.2610197e+00   6.9787236e+03
 8.2657003e+00   6.8818362e+03
 8.2703800e+00   6.7479823e+03
 8.2750597e+00   6.6406348e+03
 8.2797403e+00   6.5267361e+03
 8.2844200e+00   6.4150044e+03
 8.2890997e+00   6.3158756e+03
 8.2937803e+00   6.1809321e+03
 8.2984600e+00   6.0952495e+03
 8.3031397e+00   5.9977554e+03
 8.3078203e+00   5.9265736e+03
 8.3125000e+00   5.8290611e+03
 8.3171797e+00   5.7623201e+03
 8.3218603e+00   5.6808262e+03
 8.3265400e+00   5.6321754e+03
 8.3312197e+00   5.5845837e+03
 8.3359003e+00   5.5699510e+03
 8.3405800e+00   5.5253244e+03
 8.3452597e+00   5.5289341e+03
 8.3499403e+00   5.5187703e+03
 8.3546200e+00   5.5352919e+03
 8.3592997e+00   5.5228791e+03
 8.3639803e+00   5.5822488e+03
 8.3686600e+00   5.6214598e+03
 8.3733397e+00   5.7618641e+03
 8.3780203e+00   5.9395679e+03
 8.3827000e+00   6.2319834e+03
 8.3873796e+00   6.5284811e+03
 8.3920603e+00   7.0422582e+03
 8.3967400e+00   7.6584758e+03
 8.4014196e+00   8.1553034e+03
 8.4061003e+00   8.6024857e+03
 8.4107800e+00   8.5491807e+03
 8.4154596e+00   8.2673809e+03
 8.4201403e+00   7.9211264e+03
 8.4248199e+00   7.3047178e+03
 8.4294996e+00   6.8443469e+03
 8.4341803e+00   6.5170361e+03
 8.4388599e+00   6.3610419e+03
 8.4435396e+00   6.2395140e+03
 8.4482203e+00   6.1170417e+03
 8.4528999e+00   6.1055569e+03
 8.4575796e+00   6.1079025e+03
 8.4622602e+00   6.1176755e+03
 8.4669399e+00   6.1588775e+03
 8.4716196e+00   6.1921582e+03
 8.4763002e+00   6.2163021e+03
 8.4809799e+00   6.2379415e+03
 8.4856596e+00   6.2859495e+03
 8.4903402e+00   6.2812882e+03
 8.4950199e+00   6.3155895e+03
 8.4996996e+00   6.3306495e+03
 8.5043802e+00   6.3273369e+03
 8.5090599e+00   6.3133333e+03
 8.5137396e+00   6.3211845e+03
 8.5184202e+00   6.3006191e+03
 8.5230999e+00   6.3173057e+03
 8.5277796e+00   6.2910195e+03
 8.5324602e+00   6.2850517e+03
 8.5371399e+00   6.2483734e+03
 8.5418196e+00   6.2309432e+03
 8.5465002e+00   6.2088856e+03
 8.5511799e+00   6.1889445e+03
 8.5558596e+00   6.1594786e+03
 8.5605402e+00   6.1194377e+03
 8.5652199e+00   6.1131225e+03
 8.5698996e+00   6.0305767e+03
 8.5745802e+00   6.0127111e+03
 8.5792599e+00   5.9492829e+03
 8.5839396e+00   5.9215454e+03
 8.5886202e+00   5.8576068e+03
 8.5932999e+00   5.8379359e+03
 8.5979795e+00   5.7691439e+03
 8.6026602e+00   5.7566123e+03
 8.6073399e+00   5.7045009e+03
 8.6120195e+00   5.6745199e+03
 8.6167002e+00   5.6438857e+03
 8.6213799e+00   5.5976347e+03
 8.6260595e+00   5.5803380e+03
 8.6307402e+00   5.5386214e+03
 8.6354198e+00   5.5325709e+03
 8.6400995e+00   5.5196614e+03
 8.6447802e+00   5.5016363e+03
 8.6494598e+00   5.4823186e+03
 8.6541405e+00   5.4947340e+03
 8.6588202e+00   5.4756232e+03
 8.6634998e+00   5.4672393e+03
 8.6681805e+00   5.4624177e+03
 8.6728601e+00   5.4669620e+03
 8.6775398e+00   5.4708505e+03
 8.6822205e+00   5.4699414e+03
 8.6869001e+00   5.4669827e+03
 8.6915798e+00   5.4740958e+03
 8.6962605e+00   5.4746411e+03
 8.7009401e+00   5.4741218e+03
 8.7056198e+00   5.4955948e+03
 8.7103004e+00   5.4809767e+03
 8.7149801e+00   5.4889542e+03
 8.7196598e+00   5.4857862e+03
 8.7243404e+00   5.4964899e+03
 8.7290201e+00   5.4812434e+03
 8.7336998e+00   5.4948387e+03
 8.7383804e+00   5.4951393e+03
 8.7430601e+00   5.5081307e+03
 8.7477398e+00   5.5003680e+03
 8.7524204e+00   5.5076922e+03
 8.7571001e+00   5.4960799e+03
 8.7617798e+00   5.5055207e+03
 8.7664604e+00   5.4956430e+03
 8.7711401e+00   5.4847003e+03
 8.7758198e+00   5.4816097e+03
 8.7805004e+00   5.4774565e+03
 8.7851801e+00   5.4723672e+03
 8.7898598e+00   5.4632989e+03
 8.7945404e+00   5.4502511e+03
 8.7992201e+00   5.4219133e+03
 8.8038998e+00   5.4307239e+03
 8.8085804e+00   5.4094329e+03
 8.8132601e+00   5.4064152e+03
 8.8179398e+00   5.3864800e+03
 8.8226204e+00   5.3700428e+03
 8.8273001e+00   5.3429377e+03
 8.8319798e+00   5.3375157e+03
 8.8366604e+00   5.3048374e+03
 8.8413401e+00   5.2941962e+03
 8.8460197e+00   5.2525388e+03
 8.8507004e+00   5.2459253e+03
 8.8553801e+00   5.1888960e+03
 8.8600597e+00   5.1638043e+03
 8.8647404e+00   5.1437365e+03
 8.8694201e+00   5.1062828e+03
 8.8740997e+00   5.0838033e+03
 8.8787804e+00   5.0709211e+03
 8.8834600e+00   5.0399684e+03
 8.8881397e+00   5.0199662e+03
 8.8928204e+00   5.0059154e+03
 8.8975000e+00   4.9830867e+03
 8.9021797e+00   4.9849467e+03
 8.9068604e+00   4.9537941e+03
 8.9115400e+00   4.9734356e+03
 8.9162197e+00   4.9491965e+03
 8.9209003e+00   4.9605264e+03
 8.9255800e+00   4.9464204e+03
 8.9302597e+00   4.9470809e+03
 8.9349403e+00   4.9397500e+03
 8.9396200e+00   4.9370216e+03
 8.9442997e+00   4.9486338e+03
 8.9489803e+00   4.9267079e+03
 8.9536600e+00   4.9534518e+03
 8.9583397e+00   4.9216270e+03
 8.9630203e+00   4.9420056e+03
 8.9677000e+00   4.9471034e+03
 8.9723797e+00   4.9455187e+03
 8.9770603e+00   4.9346106e+03
 8.9817400e+00   4.9468658e+03
 8.9864197e+00   4.9261299e+03
 8.9911003e+00   4.9383826e+03
 8.9957800e+00   4.9385660e+03
 9.0004597e+00   4.9385767e+03
 9.0051403e+00   4.9343336e+03
 9.0098200e+00   4.9314826e+03
 9.0144997e+00   4.9298118e+03
 9.0191803e+00   4.9135775e+03
 9.0238600e+00   4.9060971e+03
 9.0285397e+00   4.8910697e+03
 9.0332203e+00   4.8838742e+03
 9.0379000e+00   4.8621320e+03
 9.0425797e+00   4.8726086e+03
 9.0472603e+00   4.8536592e+03
 9.0519400e+00   4.8607075e+03
 9.0566196e+00   4.8423485e+03
 9.0613003e+00   4.8415037e+03
 9.0659800e+00   4.8395794e+03
 9.0706596e+00   4.8449375e+03
 9.0753403e+00   4.8477456e+03
 9.0800200e+00   4.8522812e+03
 9.0846996e+00   4.8361641e+03
 9.0893803e+00   4.8433411e+03
 9.0940599e+00   4.8456321e+03
 9.0987396e+00   4.8597417e+03
 9.1034203e+00   4.8493712e+03
 9.1080999e+00   4.8516875e+03
 9.1127796e+00   4.8634839e+03
 9.1174603e+00   4.8771916e+03
 9.1221399e+00   4.8611599e+03
 9.1268196e+00   4.8681127e+03
 9.1315002e+00   4.8840143e+03
 9.1361799e+00   4.8710872e+03
 9.1408596e+00   4.9075493e+03
 9.1455402e+00   4.8937597e+03
 9.1502199e+00   4.9096890e+03
 9.1548996e+00   4.9235354e+03
 9.1595802e+00   4.9323713e+03
 9.1642599e+00   4.9291695e+03
 9.1689396e+00   4.9536200e+03
 9.1736202e+00   4.9488920e+03
 9.1782999e+00   4.9687979e+03
 9.1829796e+00   4.9881225e+03
 9.1876602e+00   4.9883034e+03
 9.1923399e+00   5.0119330e+03
 9.1970196e+00   5.0254030e+03
 9.2017002e+00   5.0562187e+03
 9.2063799e+00   5.0608890e+03
 9.2110596e+00   5.0873543e+03
 9.2157402e+00   5.1248242e+03
 9.2204199e+00   5.1482899e+03
 9.2250996e+00   5.1673951e+03
 9.2297802e+00   5.2104143e+03
 9.2344599e+00   5.2352203e+03
 9.2391396e+00   5.2809404e+03
 9.2438202e+00   5.3193799e+03
 9.2484999e+00   5.3716456e+03
 9.2531796e+00   5.4168439e+03
 9.2578602e+00   5.4539276e+03
 9.2625399e+00   5.5063227e+03
 9.2672195e+00   5.5511114e+03
 9.2719002e+00   5.5918509e+03
 9.2765799e+00   5.6290061e+03
 9.2812595e+00   5.6660136e+03
 9.2859402e+00   5.6756497e+03
 9.2906199e+00   5.6992131e+03
 9.2952995e+00   5.7047787e+03
 9.2999802e+00   5.7255464e+03
 9.3046598e+00   5.7145812e+03
 9.3093395e+00   5.7264835e+03
 9.3140202e+00   5.7213894e+03
 9.3186998e+00   5.7157726e+03
 9.3233805e+00   5.7031078e+03
 9.3280602e+00   5.7111221e+03
 9.3327398e+00   5.6893535e+03
 9.3374205e+00   5.6853348e+03
 9.3421001e+00   5.6727959e+03
 9.3467798e+00   5.6448519e+03
 9.3514605e+00   5.6494760e+03
 9.3561401e+00   5.6203630e+03
 9.3608198e+00   5.6037062e+03
 9.3655005e+00   5.6025863e+03
 9.3701801e+00   5.5665347e+03
 9.3748598e+00   5.5438511e+03
 9.3795404e+00   5.5318237e+03
 9.3842201e+00   5.4983468e+03
 9.3888998e+00   5.4860458e+03
 9.3935804e+00   5.4548736e+03
 9.3982601e+00   5.4316836e+03
 9.4029398e+00   5.4136229e+03
 9.4076204e+00   5.3904074e+03
 9.4123001e+00   5.3836615e+03
 9.4169798e+00   5.3549185e+03
 9.4216604e+00   5.3416237e+03
 9.4263401e+00   5.3256117e+03
 9.4310198e+00   5.3029127e+03
 9.4357004e+00   5.2921356e+03
 9.4403801e+00   5.3026802e+03
 9.4450598e+00   5.2837389e+03
 9.4497404e+00   5.2869784e+03
 9.4544201e+00   5.2856066e+03
 9.4590998e+00   5.2838443e+03
 9.4637804e+00   5.2950439e+03
 9.4684601e+00   5.3059346e+03
 9.4731398e+00   5.3116144e+03
 9.4778204e+00   5.3310528e+03
 9.4825001e+00   5.3346199e+03
 9.4871798e+00   5.3393019e+03
 9.4918604e+00   5.3445052e+03
 9.4965401e+00   5.3461570e+03
 9.5012197e+00   5.3553711e+03
 9.5059004e+00   5.3372417e+03
 9.5105801e+00   5.3331382e+03
 9.5152597e+00   5.3384735e+03
 9.5199404e+00   5.3096314e+03
 9.5246201e+00   5.3079862e+03
 9.5292997e+00   5.3092424e+03
 9.5339804e+00   5.2903715e+03
 9.5386600e+00   5.2928384e+03
 9.5433397e+00   5.2820978e+03
 9.5480204e+00   5.2748113e+03
 9.5527000e+00   5.2862436e+03
 9.5573797e+00   5.2768008e+03
 9.5620604e+00   5.2745550e+03
 9.5667400e+00   5.2719612e+03
 9.5714197e+00   5.2694959e+03
 9.5761003e+00   5.2785533e+03
 9.5807800e+00   5.2699214e+03
 9.5854597e+00   5.2723203e+03
 9.5901403e+00   5.2805811e+03
 9.5948200e+00   5.2670271e+03
 9.5994997e+00   5.2695563e+03
 9.6041803e+00   5.2619621e+03
 9.6088600e+00   5.2626585e+03
 9.6135397e+00   5.2560711e+03
 9.6182203e+00   5.2439361e+03
 9.6229000e+00   5.2270306e+03
 9.6275797e+00   5.2229092e+03
 9.6322603e+00   5.2129863e+03
 9.6369400e+00   5.2026836e+03
 9.6416197e+00   5.1917606e+03
 9.6463003e+00   5.1691580e+03
 9.6509800e+00   5.1586209e+03
 9.6556597e+00   5.1384407e+03
 9.6603403e+00   5.1111717e+03
 9.6650200e+00   5.1183033e+03
 9.6696997e+00   5.0919166e+03
 9.6743803e+00   5.0841182e+03
 9.6790600e+00   5.0657791e+03
 9.6837397e+00   5.0617413e+03
 9.6884203e+00   5.0567890e+03
 9.6931000e+00   5.0358298e+03
 9.6977797e+00   5.0315261e+03
 9.7024603e+00   5.0205811e+03
 9.7071400e+00   5.0157739e+03
 9.7118196e+00   4.9959271e+03
 9.7165003e+00   4.9931635e+03
 9.7211800e+00   4.9875018e+03
 9.7258596e+00   4.9807708e+03
 9.7305403e+00   4.9724214e+03
 9.7352200e+00   4.9747530e+03
 9.7398996e+00   4.9820142e+03
 9.7445803e+00   4.9697586e+03
 9.7492599e+00   4.9806910e+03
 9.7539396e+00   4.9946954e+03
 9.7586203e+00   4.9855352e+03
 9.7632999e+00   4.9954727e+03
 9.7679796e+00   5.0198729e+03
 9.7726603e+00   5.0242221e+03
 9.7773399e+00   5.0569736e+03
 9.7820196e+00   5.0649758e+03
 9.7867002e+00   5.1125142e+03
 9.7913799e+00   5.1422141e+03
 9.7960596e+00   5.1801500e+03
 9.8007402e+00   5.2298675e+03
 9.8054199e+00   5.2972514e+03
 9.8100996e+00   5.3754415e+03
 9.8147802e+00   5.4764588e+03
 9.8194599e+00   5.6229870e+03
 9.8241396e+00   5.8204141e+03
 9.8288202e+00   6.0820057e+03
 9.8334999e+00   6.5995903e+03
 9.8381796e+00   7.2864635e+03
 9.8428602e+00   8.2223576e+03
 9.8475399e+00   9.6262130e+03
 9.8522196e+00   1.0653550e+04
 9.8569002e+00   1.2006792e+04
 9.8615799e+00   1.2575629e+04
 9.8662596e+00   1.2661005e+04
 9.8709402e+00   1.1700749e+04
 9.8756199e+00   1.0834951e+04
 9.8802996e+00   9.3068644e+03
 9.8849802e+00   8.1444791e+03
 9.8896599e+00   7.3347140e+03
 9.8943396e+00   6.7558750e+03
 9.8990202e+00   6.2950265e+03
 9.9036999e+00   6.0298165e+03
 9.9083796e+00   5.8364518e+03
 9.9130602e+00   5.7189164e+03
 9.9177399e+00   5.6478346e+03
 9.9224195e+00   5.5993540e+03
 9.9271002e+00   5.5699085e+03
 9.9317799e+00   5.5385581e+03
 9.9364595e+00   5.5208332e+03
 9.9411402e+00   5.5003743e+03
 9.9458199e+00   5.4804401e+03
 9.9504995e+00   5.4625079e+03
 9.9551802e+00   5.4499130e+03
 9.9598598e+00   5.4412909e+03
 9.9645395e+00   5.4390903e+03
 9.9692202e+00   5.4186999e+03
 9.9738998e+00   5.4141488e+03
 9.9785805e+00   5.3933890e+03
 9.9832602e+00   5.3870890e+03
 9.9879398e+00   5.3841818e+03
 9.9926205e+00   5.3710295e+03
 9.9973001e+00   5.3780698e+03
 1.0001980e+01   5.3636095e+03
 1.0006660e+01   5.3469197e+03
 1.0011340e+01   5.3276440e+03
 1.0016020e+01   5.3106567e+03
 1.0020700e+01   5.2966781e+03
 1.0025380e+01   5.2837887e+03
 1.0030060e+01   5.2609430e+03
 1.0034740e+01   5.2413253e+03
 1.0039420e+01   5.2281171e+03
 1.0044100e+01   5.2101621e+03
 1.0048780e+01   5.1977770e+03
 1.0053460e+01   5.1866176e+03
 1.0058140e+01   5.1763036e+03
 1.0062820e+01   5.1540577e+03
 1.0067500e+01   5.1539083e+03
 1.0072180e+01   5.1296618e+03
 1.0076860e+01   5.1504422e+03
 1.0081540e+01   5.1333394e+03
 1.0086220e+01   5.1329062e+03
 1.0090900e+01   5.1287089e+03
 1.0095580e+01   5.1309041e+03
 1.0100260e+01   5.1219696e+03
 1.0104940e+01   5.1267548e+03
 1.0109620e+01   5.1386342e+03
 1.0114300e+01   5.1266474e+03
 1.0118980e+01   5.1399291e+03
 1.0123660e+01   5.1321050e+03
 1.0128340e+01   5.1402227e+03
 1.0133020e+01   5.1404125e+03
 1.0137700e+01   5.1557642e+03
 1.0142380e+01   5.1515638e+03
 1.0147060e+01   5.1615287e+03
 1.0151740e+01   5.1567065e+03
 1.0156420e+01   5.1645721e+03
 1.0161100e+01   5.1682335e+03
 1.0165780e+01   5.1755289e+03
 1.0170460e+01   5.1871313e+03
 1.0175140e+01   5.1911588e+03
 1.0179820e+01   5.1859286e+03
 1.0184500e+01   5.1785675e+03
 1.0189180e+01   5.1706794e+03
 1.0193860e+01   5.1809119e+03
 1.0198540e+01   5.1848047e+03
 1.0203220e+01   5.1619433e+03
 1.0207900e+01   5.1872728e+03
 1.0212580e+01   5.1745849e+03
 1.0217260e+01   5.1814709e+03
 1.0221940e+01   5.1819142e+03
 1.0226620e+01   5.1846207e+03
 1.0231300e+01   5.1807767e+03
 1.0235980e+01   5.1989319e+03
 1.0240660e+01   5.1990375e+03
 1.0245340e+01   5.2081194e+03
 1.0250020e+01   5.2079877e+03
 1.0254700e+01   5.2605302e+03
 1.0259380e+01   5.2929939e+03
 1.0264060e+01   5.3677868e+03
 1.0268740e+01   5.5155135e+03
 1.0273420e+01   5.6975732e+03
 1.0278100e+01   6.0168174e+03
 1.0282780e+01   6.4317184e+03
 1.0287460e+01   6.9703729e+03
 1.0292140e+01   7.6476340e+03
 1.0296820e+01   8.1482067e+03
 1.0301500e+01   8.4371145e+03
 1.0306180e+01   8.2053072e+03
 1.0310860e+01   8.0516921e+03
 1.0315540e+01   7.4695658e+03
 1.0320220e+01   6.7740707e+03
 1.0324900e+01   6.3115813e+03
 1.0329580e+01   5.9019837e+03
 1.0334260e+01   5.5848766e+03
 1.0338940e+01   5.3810974e+03
 1.0343620e+01   5.2481735e+03
 1.0348300e+01   5.1920882e+03
 1.0352980e+01   5.1417810e+03
 1.0357660e+01   5.1136308e+03
 1.0362340e+01   5.0791997e+03
 1.0367020e+01   5.0699173e+03
 1.0371700e+01   5.0548762e+03
 1.0376380e+01   5.0730662e+03
 1.0381060e+01   5.0588183e+03
 1.0385740e+01   5.0650608e+03
 1.0390420e+01   5.0435528e+03
 1.0395100e+01   5.0597228e+03
 1.0399780e+01   5.0573328e+03
 1.0404460e+01   5.0455704e+03
 1.0409140e+01   5.0595627e+03
 1.0413820e+01   5.0443200e+03
 1.0418500e+01   5.0547561e+03
 1.0423180e+01   5.0673480e+03
 1.0427860e+01   5.0446099e+03
 1.0432540e+01   5.0434350e+03
 1.0437220e+01   5.0534266e+03
 1.0441900e+01   5.0541092e+03
 1.0446580e+01   5.0681170e+03
 1.0451260e+01   5.0616443e+03
 1.0455940e+01   5.0605827e+03
 1.0460620e+01   5.0628286e+03
 1.0465300e+01   5.0676740e+03
 1.0469980e+01   5.0685336e+03
 1.0474660e+01   5.0866425e+03
 1.0479340e+01   5.0818448e+03
 1.0484020e+01   5.0813081e+03
 1.0488700e+01   5.0786740e+03
 1.0493380e+01   5.0856570e+03
 1.0498060e+01   5.0887212e+03
 1.0502740e+01   5.0946930e+03
 1.0507420e+01   5.1021209e+03
 1.0512100e+01   5.1032497e+03
 1.0516780e+01   5.0996802e+03
 1.0521460e+01   5.0932888e+03
 1.0526140e+01   5.0870993e+03
 1.0530820e+01   5.0968270e+03
 1.0535500e+01   5.0953081e+03
 1.0540180e+01   5.0948199e+03
 1.0544860e+01   5.0805402e+03
 1.0549540e+01   5.0808780e+03
 1.0554220e+01   5.0790308e+03
 1.0558900e+01   5.0815200e+03
 1.0563580e+01   5.0797699e+03
 1.0568260e+01   5.0800282e+03
 1.0572940e+01   5.0599046e+03
 1.0577620e+01   5.0565122e+03
 1.0582300e+01   5.0355364e+03
 1.0586980e+01   5.0486379e+03
 1.0591660e+01   5.0294510e+03
 1.0596340e+01   5.0242842e+03
 1.0601020e+01   5.0246561e+03
 1.0605700e+01   5.0179815e+03
 1.0610380e+01   5.0063342e+03
 1.0615060e+01   4.9906014e+03
 1.0619740e+01   4.9970292e+03
 1.0624420e+01   4.9941811e+03
 1.0629100e+01   4.9992331e+03
 1.0633780e+01   4.9906846e+03
 1.0638460e+01   4.9926934e+03
 1.0643140e+01   4.9779187e+03
 1.0647820e+01   4.9801839e+03
 1.0652500e+01   4.9825798e+03
 1.0657180e+01   4.9854814e+03
 1.0661860e+01   4.9716105e+03
 1.0666540e+01   4.9793965e+03
 1.0671220e+01   4.9735788e+03
 1.0675900e+01   4.9650418e+03
 1.0680580e+01   4.9790858e+03
 1.0685260e+01   4.9661512e+03
 1.0689940e+01   4.9940037e+03
 1.0694620e+01   4.9730043e+03
 1.0699300e+01   4.9860416e+03
 1.0703980e+01   4.9930194e+03
 1.0708660e+01   4.9955497e+03
 1.0713340e+01   4.9993878e+03
 1.0718020e+01   5.0166223e+03
 1.0722700e+01   5.0042752e+03
 1.0727380e+01   5.0351897e+03
 1.0732060e+01   5.0247974e+03
 1.0736740e+01   5.0395333e+03
 1.0741420e+01   5.0375547e+03
 1.0746100e+01   5.0416777e+03
 1.0750780e+01   5.0579868e+03
 1.0755460e+01   5.0537691e+03
 1.0760140e+01   5.0505315e+03
 1.0764820e+01   5.0496105e+03
 1.0769500e+01   5.0402904e+03
 1.0774180e+01   5.0458091e+03
 1.0778860e+01   5.0536723e+03
 1.0783540e+01   5.0345382e+03
 1.0788220e+01   5.0551136e+03
 1.0792900e+01   5.0221771e+03
 1.0797580e+01   5.0320645e+03
 1.0802260e+01   5.0202935e+03
 1.0806940e+01   5.0102224e+03
 1.0811620e+01   5.0098073e+03
 1.0816300e+01   5.0025050e+03
 1.0820980e+01   5.0128113e+03
 1.0825660e+01   4.9935897e+03
 1.0830340e+01   4.9909196e+03
 1.0835020e+01   4.9870194e+03
 1.0839700e+01   4.9870948e+03
 1.0844380e+01   4.9840567e+03
 1.0849060e+01   4.9740589e+03
 1.0853740e+01   4.9647559e+03
 1.0858420e+01   4.9726195e+03
 1.0863100e+01   4.9681262e+03
 1.0867780e+01   4.9618520e+03
 1.0872460e+01   4.9500574e+03
 1.0877140e+01   4.9390999e+03
 1.0881820e+01   4.9355654e+03
 1.0886500e+01   4.9154012e+03
 1.0891180e+01   4.9118732e+03
 1.0895860e+01   4.9069146e+03
 1.0900540e+01   4.8951397e+03
 1.0905220e+01   4.8755247e+03
 1.0909900e+01   4.8722810e+03
 1.0914580e+01   4.8551969e+03
 1.0919260e+01   4.8509326e+03
 1.0923940e+01   4.8371061e+03
 1.0928620e+01   4.8318201e+03
 1.0933300e+01   4.8235274e+03
 1.0937980e+01   4.8173348e+03
 1.0942660e+01   4.8129917e+03
 1.0947340e+01   4.7975129e+03
 1.0952020e+01   4.7966590e+03
 1.0956700e+01   4.7933558e+03
 1.0961380e+01   4.7918369e+03
 1.0966060e+01   4.7776063e+03
 1.0970740e+01   4.7814636e+03
 1.0975420e+01   4.7689299e+03
 1.0980100e+01   4.7590356e+03
 1.0984780e+01   4.7534973e+03
 1.0989460e+01   4.7547957e+03
 1.0994140e+01   4.7498194e+03
 1.0998820e+01   4.7484456e+03
 1.1003500e+01   4.7496931e+03
 1.1008180e+01   4.7529676e+03
 1.1012860e+01   4.7561943e+03
 1.1017540e+01   4.7508054e+03
 1.1022220e+01   4.7591350e+03
 1.1026900e+01   4.7493965e+03
 1.1031580e+01   4.7608581e+03
 1.1036260e+01   4.7569966e+03
 1.1040940e+01   4.7663847e+03
 1.1045620e+01   4.7696749e+03
 1.1050300e+01   4.7817142e+03
 1.1054980e+01   4.7836243e+03
 1.1059660e+01   4.8004483e+03
 1.1064340e+01   4.8005896e+03
 1.1069020e+01   4.8087365e+03
 1.1073700e+01   4.8238275e+03
 1.1078380e+01   4.8208657e+03
 1.1083060e+01   4.8516880e+03
 1.1087740e+01   4.8644072e+03
 1.1092420e+01   4.8904898e+03
 1.1097100e+01   4.9107827e+03
 1.1101780e+01   4.9187237e+03
 1.1106460e+01   4.9469973e+03
 1.1111140e+01   4.9741992e+03
 1.1115820e+01   4.9786638e+03
 1.1120500e+01   5.0146571e+03
 1.1125180e+01   5.0135636e+03
 1.1129860e+01   5.0294945e+03
 1.1134540e+01   5.0258405e+03
 1.1139220e+01   5.0318727e+03
 1.1143900e+01   5.0212449e+03
 1.1148580e+01   5.0170490e+03
 1.1153260e+01   5.0139080e+03
 1.1157940e+01   5.0017344e+03
 1.1162620e+01   4.9680974e+03
 1.1167300e+01   4.9566446e+03
 1.1171980e+01   4.9527349e+03
 1.1176660e+01   4.9248190e+03
 1.1181340e+01   4.9182760e+03
 1.1186020e+01   4.8885462e+03
 1.1190700e+01   4.8799305e+03
 1.1195380e+01   4.8648741e+03
 1.1200060e+01   4.8527491e+03
 1.1204740e+01   4.8396510e+03
 1.1209420e+01   4.8325858e+03
 1.1214100e+01   4.8204071e+03
 1.1218780e+01   4.8237282e+03
 1.1223460e+01   4.8204435e+03
 1.1228140e+01   4.8046648e+03
 1.1232820e+01   4.8084684e+03
 1.1237500e+01   4.8057788e+03
 1.1242180e+01   4.7998236e+03
 1.1246860e+01   4.7806219e+03
 1.1251540e+01   4.7842897e+03
 1.1256220e+01   4.7771605e+03
 1.1260900e+01   4.7604172e+03
 1.1265580e+01   4.7515945e+03
 1.1270260e+01   4.7345215e+03
 1.1274940e+01   4.7240278e+03
 1.1279620e+01   4.7153468e+03
 1.1284300e+01   4.7008090e+03
 1.1288980e+01   4.7039957e+03
 1.1293660e+01   4.7085984e+03
 1.1298340e+01   4.6859090e+03
 1.1303020e+01   4.6892192e+03
 1.1307700e+01   4.6770763e+03
 1.1312380e+01   4.6670618e+03
 1.1317060e+01   4.6655154e+03
 1.1321740e+01   4.6535033e+03
 1.1326420e+01   4.6409502e+03
 1.1331100e+01   4.6369275e+03
 1.1335780e+01   4.6294135e+03
 1.1340460e+01   4.6154456e+03
 1.1345140e+01   4.6196371e+03
 1.1349820e+01   4.6023025e+03
 1.1354500e+01   4.6006595e+03
 1.1359180e+01   4.5858921e+03
 1.1363860e+01   4.5735128e+03
 1.1368540e+01   4.5720157e+03
 1.1373220e+01   4.5499652e+03
 1.1377900e+01   4.5606898e+03
 1.1382580e+01   4.5433985e+03
 1.1387260e+01   4.5450203e+03
 1.1391940e+01   4.5383906e+03
 1.1396620e+01   4.5230776e+03
 1.1401300e+01   4.5265776e+03
 1.1405980e+01   4.5225445e+03
 1.1410660e+01   4.5113259e+03
 1.1415340e+01   4.5162498e+03
 1.1420020e+01   4.5102779e+03
 1.1424700e+01   4.5119578e+03
 1.1429380e+01   4.5107986e+03
 1.1434060e+01   4.4978949e+03
 1.1438740e+01   4.4953147e+03
 1.1443420e+01   4.4932689e+03
 1.1448100e+01   4.4936400e+03
 1.1452780e+01   4.4997143e+03
 1.1457460e+01   4.4715243e+03
 1.1462140e+01   4.4806321e+03
 1.1466820e+01   4.4762332e+03
 1.1471500e+01   4.4747429e+03
 1.1476180e+01   4.4799820e+03
 1.1480860e+01   4.4755495e+03
 1.1485540e+01   4.4820824e+03
 1.1490220e+01   4.4738294e+03
 1.1494900e+01   4.4603989e+03
 1.1499580e+01   4.4606459e+03
 1.1504260e+01   4.4593121e+03
 1.1508940e+01   4.4485485e+03
 1.1513620e+01   4.4550861e+03
 1.1518300e+01   4.4375672e+03
 1.1522980e+01   4.4349606e+03
 1.1527660e+01   4.4384186e+03
 1.1532340e+01   4.4124014e+03
 1.1537020e+01   4.4093981e+03
 1.1541700e+01   4.4043564e+03
 1.1546380e+01   4.4036027e+03
 1.1551060e+01   4.3929302e+03
 1.1555740e+01   4.3895884e+03
 1.1560420e+01   4.3872049e+03
 1.1565100e+01   4.3863216e+03
 1.1569780e+01   4.3629321e+03
 1.1574460e+01   4.3805291e+03
 1.1579140e+01   4.3650321e+03
 1.1583820e+01   4.3669222e+03
 1.1588500e+01   4.3596834e+03
 1.1593180e+01   4.3555942e+03
 1.1597860e+01   4.3652219e+03
 1.1602540e+01   4.3580437e+03
 1.1607220e+01   4.3756930e+03
 1.1611900e+01   4.3599770e+03
 1.1616580e+01   4.3588731e+03
 1.1621260e+01   4.3663549e+03
 1.1625940e+01   4.3520956e+03
 1.1630620e+01   4.3431299e+03
 1.1635300e+01   4.3469562e+03
 1.1639980e+01   4.3465981e+03
 1.1644660e+01   4.3285841e+03
 1.1649340e+01   4.3350673e+03
 1.1654020e+01   4.3304550e+03
 1.1658700e+01   4.3230287e+03
 1.1663380e+01   4.3194985e+03
 1.1668060e+01   4.3154065e+03
 1.1672740e+01   4.3210870e+03
 1.1677420e+01   4.3149402e+03
 1.1682100e+01   4.3109956e+03
 1.1686780e+01   4.2985043e+03
 1.1691460e+01   4.3075534e+03
 1.1696140e+01   4.3003145e+03
 1.1700820e+01   4.2977222e+03
 1.1705500e+01   4.2959780e+03
 1.1710180e+01   4.2919981e+03
 1.1714860e+01   4.2864136e+03
 1.1719540e+01   4.2909747e+03
 1.1724220e+01   4.2935223e+03
 1.1728900e+01   4.2897517e+03
 1.1733580e+01   4.2939144e+03
 1.1738260e+01   4.2876266e+03
 1.1742940e+01   4.2877626e+03
 1.1747620e+01   4.2892774e+03
 1.1752300e+01   4.2846995e+03
 1.1756980e+01   4.2891949e+03
 1.1761660e+01   4.2838829e+03
 1.1766340e+01   4.2854250e+03
 1.1771020e+01   4.2850392e+03
 1.1775700e+01   4.2975245e+03
 1.1780380e+01   4.2996649e+03
 1.1785060e+01   4.3027039e+03
 1.1789740e+01   4.2944319e+03
 1.1794420e+01   4.3209958e+03
 1.1799100e+01   4.3015930e+03
 1.1803780e+01   4.3001774e+03
 1.1808460e+01   4.3126175e+03
 1.1813140e+01   4.3029652e+03
 1.1817820e+01   4.3121119e+03
 1.1822500e+01   4.3143321e+03
 1.1827180e+01   4.3128995e+03
 1.1831860e+01   4.3146079e+03
 1.1836540e+01   4.3207217e+03
 1.1841220e+01   4.3206362e+03
 1.1845900e+01   4.3227671e+03
 1.1850580e+01   4.3270230e+03
 1.1855260e+01   4.3480073e+03
 1.1859940e+01   4.3516238e+03
 1.1864620e+01   4.3715645e+03
 1.1869300e+01   4.3971286e+03
 1.1873980e+01   4.4335438e+03
 1.1878660e+01   4.4944994e+03
 1.1883340e+01   4.5663492e+03
 1.1888020e+01   4.6569759e+03
 1.1892700e+01   4.7699813e+03
 1.1897380e+01   4.8626502e+03
 1.1902060e+01   4.9299524e+03
 1.1906740e+01   4.9213451e+03
 1.1911420e+01   4.8717584e+03
 1.1916100e+01   4.8203236e+03
 1.1920780e+01   4.7010134e+03
 1.1925460e+01   4.6253541e+03
 1.1930140e+01   4.5396995e+03
 1.1934820e+01   4.4686130e+03
 1.1939500e+01   4.4603284e+03
 1.1944180e+01   4.4205419e+03
 1.1948860e+01   4.4112799e+03
 1.1953540e+01   4.4061767e+03
 1.1958220e+01   4.4053062e+03
 1.1962900e+01   4.3994206e+03
 1.1967580e+01   4.4183718e+03
 1.1972260e+01   4.4144113e+03
 1.1976940e+01   4.4267868e+03
 1.1981620e+01   4.4313318e+03
 1.1986300e+01   4.4364106e+03
 1.1990980e+01   4.4534043e+03
 1.1995660e+01   4.4596077e+03
 1.2000340e+01   4.4589239e+03
 1.2005020e+01   4.4688201e+03
 1.2009700e+01   4.4738018e+03
 1.2014380e+01   4.4678748e+03
 1.2019060e+01   4.4819909e+03
 1.2023740e+01   4.4697136e+03
 1.2028420e+01   4.4852102e+03
 1.2033100e+01   4.4678135e+03
 1.2037780e+01   4.4764432e+03
 1.2042460e+01   4.4726163e+03
 1.2047140e+01   4.4715337e+03
 1.2051820e+01   4.4821087e+03
 1.2056500e+01   4.4686633e+03
 1.2061180e+01   4.4674419e+03
 1.2065860e+01   4.4763667e+03
 1.2070540e+01   4.4730152e+03
 1.2075220e+01   4.4718570e+03
 1.2079900e+01   4.4760184e+03
 1.2084580e+01   4.4783506e+03
 1.2089260e+01   4.4793514e+03
 1.2093940e+01   4.4668254e+03
 1.2098620e+01   4.4780447e+03
 1.2103300e+01   4.4687162e+03
 1.2107980e+01   4.4648557e+03
 1.2112660e+01   4.4676053e+03
 1.2117340e+01   4.4575988e+03
 1.2122020e+01   4.4422752e+03
 1.2126700e+01   4.4295169e+03
 1.2131380e+01   4.4099630e+03
 1.2136060e+01   4.3908821e+03
 1.2140740e+01   4.3699337e+03
 1.2145420e+01   4.3445559e+03
 1.2150100e+01   4.3258975e+03
 1.2154780e+01   4.3087707e+03
 1.2159460e+01   4.2872618e+03
 1.2164140e+01   4.2620279e+03
 1.2168820e+01   4.2358617e+03
 1.2173500e+01   4.2236528e+03
 1.2178180e+01   4.1970607e+03
 1.2182860e+01   4.1818453e+03
 1.2187540e+01   4.1740349e+03
 1.2192220e+01   4.1602204e+03
 1.2196900e+01   4.1495556e+03
 1.2201580e+01   4.1431044e+03
 1.2206260e+01   4.1208919e+03
 1.2210940e+01   4.1239899e+03
 1.2215620e+01   4.1117970e+03
 1.2220300e+01   4.0945553e+03
 1.2224980e+01   4.0893895e+03
 1.2229660e+01   4.0857679e+03
 1.2234340e+01   4.1004333e+03
 1.2239020e+01   4.0823143e+03
 1.2243700e+01   4.0797070e+03
 1.2248380e+01   4.0755235e+03
 1.2253060e+01   4.0757709e+03
 1.2257740e+01   4.0664323e+03
 1.2262420e+01   4.0667733e+03
 1.2267100e+01   4.0558484e+03
 1.2271780e+01   4.0497051e+03
 1.2276460e+01   4.0532954e+03
 1.2281140e+01   4.0587336e+03
 1.2285820e+01   4.0580703e+03
 1.2290500e+01   4.0500130e+03
 1.2295180e+01   4.0509488e+03
 1.2299860e+01   4.0472081e+03
 1.2304540e+01   4.0482897e+03
 1.2309220e+01   4.0559520e+03
 1.2313900e+01   4.0589692e+03
 1.2318580e+01   4.0500425e+03
 1.2323260e+01   4.0595341e+03
 1.2327940e+01   4.0521023e+03
 1.2332620e+01   4.0536573e+03
 1.2337300e+01   4.0551083e+03
 1.2341980e+01   4.0584126e+03
 1.2346660e+01   4.0620243e+03
 1.2351340e+01   4.0562586e+03
 1.2356020e+01   4.0753713e+03
 1.2360700e+01   4.0708916e+03
 1.2365380e+01   4.0768400e+03
 1.2370060e+01   4.0868408e+03
 1.2374740e+01   4.0915660e+03
 1.2379420e+01   4.0841736e+03
 1.2384100e+01   4.0927934e+03
 1.2388780e+01   4.1001492e+03
 1.2393460e+01   4.0964265e+03
 1.2398140e+01   4.0997387e+03
 1.2402820e+01   4.0980104e+03
 1.2407500e+01   4.1116814e+03
 1.2412180e+01   4.1030036e+03
 1.2416860e+01   4.1153098e+03
 1.2421540e+01   4.1163495e+03
 1.2426220e+01   4.1205478e+03
 1.2430900e+01   4.1286546e+03
 1.2435580e+01   4.1309535e+03
 1.2440260e+01   4.1276932e+03
 1.2444940e+01   4.1452625e+03
 1.2449620e+01   4.1543982e+03
 1.2454300e+01   4.1572332e+03
 1.2458980e+01   4.1645814e+03
 1.2463660e+01   4.1635244e+03
 1.2468340e+01   4.1707521e+03
 1.2473020e+01   4.1675150e+03
 1.2477700e+01   4.1887250e+03
 1.2482380e+01   4.1896157e+03
 1.2487060e+01   4.1926689e+03
 1.2491740e+01   4.1904442e+03
 1.2496420e+01   4.1831691e+03
 1.2501100e+01   4.1828525e+03
 1.2505780e+01   4.1851813e+03
 1.2510460e+01   4.1850027e+03
 1.2515140e+01   4.1795622e+03
 1.2519820e+01   4.1841286e+03
 1.2524500e+01   4.1821386e+03
 1.2529180e+01   4.1746467e+03
 1.2533860e+01   4.1757774e+03
 1.2538540e+01   4.1666280e+03
 1.2543220e+01   4.1641547e+03
 1.2547900e+01   4.1729360e+03
 1.2552580e+01   4.1739035e+03
 1.2557260e+01   4.1724625e+03
 1.2561940e+01   4.1731731e+03
 1.2566620e+01   4.1779394e+03
 1.2571300e+01   4.1839140e+03
 1.2575980e+01   4.1852281e+03
 1.2580660e+01   4.1872490e+03
 1.2585340e+01   4.1883710e+03
 1.2590020e+01   4.1938636e+03
 1.2594700e+01   4.2032975e+03
 1.2599380e+01   4.2124617e+03
 1.2604060e+01   4.2225431e+03
 1.2608740e+01   4.2198474e+03
 1.2613420e+01   4.2294014e+03
 1.2618100e+01   4.2288789e+03
 1.2622780e+01   4.2307498e+03
 1.2627460e+01   4.2258358e+03
 1.2632140e+01   4.2426548e+03
 1.2636820e+01   4.2351945e+03
 1.2641500e+01   4.2400319e+03
 1.2646180e+01   4.2381354e+03
 1.2650860e+01   4.2354791e+03
 1.2655540e+01   4.2355722e+03
 1.2660220e+01   4.2220669e+03
 1.2664900e+01   4.2096632e+03
 1.2669580e+01   4.2024233e+03
 1.2674260e+01   4.1987395e+03
 1.2678940e+01   4.1885585e+03
 1.2683620e+01   4.1854222e+03
 1.2688300e+01   4.1804625e+03
 1.2692980e+01   4.1666288e+03
 1.2697660e+01   4.1600956e+03
