MA2b-00004.tif Azm= 0.00
2-Theta Angle (Degrees)
Intensity
       2500
 1.0023400e+00   7.9107259e+03
 1.0070200e+00   7.9122723e+03
 1.0117000e+00   7.9062463e+03
 1.0163800e+00   7.8516777e+03
 1.0210600e+00   7.8149274e+03
 1.0257400e+00   7.7916902e+03
 1.0304199e+00   7.7738067e+03
 1.0351000e+00   7.7299819e+03
 1.0397800e+00   7.7272014e+03
 1.0444601e+00   7.6821284e+03
 1.0491400e+00   7.6279962e+03
 1.0538200e+00   7.6650661e+03
 1.0585001e+00   7.6061326e+03
 1.0631800e+00   7.5871557e+03
 1.0678600e+00   7.6073834e+03
 1.0725400e+00   7.5399090e+03
 1.0772200e+00   7.5011677e+03
 1.0819000e+00   7.5134893e+03
 1.0865800e+00   7.4887479e+03
 1.0912600e+00   7.4569599e+03
 1.0959400e+00   7.4599245e+03
 1.1006200e+00   7.4337764e+03
 1.1052999e+00   7.4274885e+03
 1.1099800e+00   7.4207189e+03
 1.1146600e+00   7.3810774e+03
 1.1193399e+00   7.3715638e+03
 1.1240200e+00   7.3334393e+03
 1.1287000e+00   7.3404196e+03
 1.1333801e+00   7.3543388e+03
 1.1380600e+00   7.2997312e+03
 1.1427400e+00   7.2850227e+03
 1.1474200e+00   7.2698735e+03
 1.1521000e+00   7.2974690e+03
 1.1567800e+00   7.2607807e+03
 1.1614600e+00   7.2229982e+03
 1.1661400e+00   7.2370278e+03
 1.1708200e+00   7.2372839e+03
 1.1755000e+00   7.1734494e+03
 1.1801800e+00   7.2148293e+03
 1.1848600e+00   7.1911701e+03
 1.1895400e+00   7.1970890e+03
 1.1942199e+00   7.1754376e+03
 1.1989000e+00   7.1713598e+03
 1.2035800e+00   7.1788027e+03
 1.2082601e+00   7.1465440e+03
 1.2129400e+00   7.1154157e+03
 1.2176200e+00   7.1180221e+03
 1.2223001e+00   7.1444168e+03
 1.2269800e+00   7.1134870e+03
 1.2316600e+00   7.1350154e+03
 1.2363400e+00   7.1415517e+03
 1.2410200e+00   7.0996019e+03
 1.2457000e+00   7.1438950e+03
 1.2503800e+00   7.1211654e+03
 1.2550600e+00   7.1131510e+03
 1.2597400e+00   7.1306575e+03
 1.2644200e+00   7.1507915e+03
 1.2691000e+00   7.1047072e+03
 1.2737800e+00   7.1292478e+03
 1.2784600e+00   7.0832452e+03
 1.2831399e+00   7.0844791e+03
 1.2878200e+00   7.1321852e+03
 1.2925000e+00   7.0982226e+03
 1.2971801e+00   7.1300098e+03
 1.3018600e+00   7.1046294e+03
 1.3065400e+00   7.1375500e+03
 1.3112200e+00   7.1428574e+03
 1.3159000e+00   7.1005642e+03
 1.3205800e+00   7.1295889e+03
 1.3252600e+00   7.1446319e+03
 1.3299400e+00   7.1250628e+03
 1.3346200e+00   7.1445858e+03
 1.3393000e+00   7.1661221e+03
 1.3439800e+00   7.1745289e+03
 1.3486600e+00   7.1830197e+03
 1.3533400e+00   7.1413721e+03
 1.3580199e+00   7.2159427e+03
 1.3627000e+00   7.1807590e+03
 1.3673800e+00   7.1708084e+03
 1.3720599e+00   7.1867635e+03
 1.3767400e+00   7.2280277e+03
 1.3814200e+00   7.1856926e+03
 1.3861001e+00   7.2136665e+03
 1.3907800e+00   7.2441480e+03
 1.3954600e+00   7.2593986e+03
 1.4001400e+00   7.2637161e+03
 1.4048200e+00   7.2716525e+03
 1.4095000e+00   7.3089892e+03
 1.4141800e+00   7.3353433e+03
 1.4188600e+00   7.3557408e+03
 1.4235400e+00   7.3602526e+03
 1.4282200e+00   7.3770694e+03
 1.4329000e+00   7.4259712e+03
 1.4375800e+00   7.4000295e+03
 1.4422600e+00   7.4477077e+03
 1.4469399e+00   7.5027204e+03
 1.4516200e+00   7.5084208e+03
 1.4563000e+00   7.5268036e+03
 1.4609801e+00   7.5293397e+03
 1.4656600e+00   7.5805208e+03
 1.4703400e+00   7.5838244e+03
 1.4750201e+00   7.5927227e+03
 1.4797000e+00   7.6165591e+03
 1.4843800e+00   7.6504765e+03
 1.4890600e+00   7.6762724e+03
 1.4937400e+00   7.7155278e+03
 1.4984200e+00   7.7118879e+03
 1.5031000e+00   7.7558749e+03
 1.5077800e+00   7.7700948e+03
 1.5124600e+00   7.7806841e+03
 1.5171400e+00   7.7751491e+03
 1.5218199e+00   7.8050693e+03
 1.5265000e+00   7.8040263e+03
 1.5311800e+00   7.7926500e+03
 1.5358599e+00   7.7705068e+03
 1.5405400e+00   7.7791310e+03
 1.5452200e+00   7.7597300e+03
 1.5499001e+00   7.7907016e+03
 1.5545800e+00   7.7375192e+03
 1.5592600e+00   7.7776818e+03
 1.5639400e+00   7.7338938e+03
 1.5686200e+00   7.7399838e+03
 1.5733000e+00   7.7684542e+03
 1.5779800e+00   7.7146161e+03
 1.5826600e+00   7.7007557e+03
 1.5873400e+00   7.6933690e+03
 1.5920200e+00   7.7196906e+03
 1.5967000e+00   7.7079772e+03
 1.6013800e+00   7.6895202e+03
 1.6060600e+00   7.7155652e+03
 1.6107399e+00   7.6981621e+03
 1.6154200e+00   7.7258585e+03
 1.6201000e+00   7.7015426e+03
 1.6247801e+00   7.7132368e+03
 1.6294600e+00   7.7000646e+03
 1.6341400e+00   7.7069567e+03
 1.6388201e+00   7.7079243e+03
 1.6435000e+00   7.7147264e+03
 1.6481800e+00   7.7081584e+03
 1.6528600e+00   7.7303829e+03
 1.6575400e+00   7.7001362e+03
 1.6622200e+00   7.7137899e+03
 1.6669000e+00   7.7059704e+03
 1.6715800e+00   7.7131346e+03
 1.6762600e+00   7.6988116e+03
 1.6809400e+00   7.7367758e+03
 1.6856200e+00   7.7184509e+03
 1.6903000e+00   7.7149164e+03
 1.6949800e+00   7.7249087e+03
 1.6996599e+00   7.7162953e+03
 1.7043400e+00   7.7040875e+03
 1.7090200e+00   7.7324618e+03
 1.7137001e+00   7.7292612e+03
 1.7183800e+00   7.7234366e+03
 1.7230600e+00   7.7366521e+03
 1.7277400e+00   7.7436716e+03
 1.7324200e+00   7.7694491e+03
 1.7371000e+00   7.7376298e+03
 1.7417800e+00   7.7513940e+03
 1.7464600e+00   7.7387214e+03
 1.7511400e+00   7.7519632e+03
 1.7558200e+00   7.7867746e+03
 1.7605000e+00   7.7866039e+03
 1.7651800e+00   7.7807099e+03
 1.7698600e+00   7.8103290e+03
 1.7745399e+00   7.7727771e+03
 1.7792200e+00   7.8209109e+03
 1.7839000e+00   7.8324336e+03
 1.7885799e+00   7.8290382e+03
 1.7932600e+00   7.8370747e+03
 1.7979400e+00   7.8550536e+03
 1.8026201e+00   7.8620232e+03
 1.8073000e+00   7.8810034e+03
 1.8119800e+00   7.9143550e+03
 1.8166600e+00   7.9093150e+03
 1.8213400e+00   7.9351970e+03
 1.8260200e+00   7.9448316e+03
 1.8307000e+00   7.9761154e+03
 1.8353800e+00   8.0031930e+03
 1.8400600e+00   7.9981921e+03
 1.8447400e+00   8.0093031e+03
 1.8494200e+00   8.0235258e+03
 1.8541000e+00   8.0513137e+03
 1.8587800e+00   8.0931051e+03
 1.8634599e+00   8.1082071e+03
 1.8681400e+00   8.1158676e+03
 1.8728200e+00   8.1530354e+03
 1.8775001e+00   8.1411076e+03
 1.8821800e+00   8.1999086e+03
 1.8868600e+00   8.2184090e+03
 1.8915401e+00   8.2388801e+03
 1.8962200e+00   8.2545540e+03
 1.9009000e+00   8.2753822e+03
 1.9055800e+00   8.2960471e+03
 1.9102600e+00   8.3206449e+03
 1.9149400e+00   8.3368149e+03
 1.9196200e+00   8.3466380e+03
 1.9243000e+00   8.3907198e+03
 1.9289800e+00   8.3970402e+03
 1.9336600e+00   8.4375583e+03
 1.9383399e+00   8.4438051e+03
 1.9430200e+00   8.5077234e+03
 1.9477000e+00   8.5245377e+03
 1.9523799e+00   8.5280337e+03
 1.9570600e+00   8.5732992e+03
 1.9617400e+00   8.6373568e+03
 1.9664201e+00   8.6287268e+03
 1.9711000e+00   8.7991284e+03
 1.9757800e+00   8.6865072e+03
 1.9804600e+00   8.7454316e+03
 1.9851400e+00   8.7196095e+03
 1.9898200e+00   8.7366681e+03
 1.9945000e+00   8.7558656e+03
 1.9991800e+00   8.7905542e+03
 2.0038600e+00   8.8005673e+03
 2.0085399e+00   8.8389935e+03
 2.0132201e+00   8.8498456e+03
 2.0179000e+00   8.9025363e+03
 2.0225799e+00   8.9223552e+03
 2.0272601e+00   8.9391709e+03
 2.0319400e+00   8.9658728e+03
 2.0366199e+00   9.0032220e+03
 2.0413001e+00   9.0349391e+03
 2.0459800e+00   9.0568655e+03
 2.0506599e+00   9.1062024e+03
 2.0553401e+00   9.1202961e+03
 2.0600200e+00   9.1722796e+03
 2.0646999e+00   9.1928057e+03
 2.0693800e+00   9.2511332e+03
 2.0740600e+00   9.3269385e+03
 2.0787399e+00   9.3867541e+03
 2.0834200e+00   9.4439894e+03
 2.0881000e+00   9.5765841e+03
 2.0927801e+00   9.7194428e+03
 2.0974600e+00   9.9138397e+03
 2.1021399e+00   1.0191687e+04
 2.1068201e+00   1.0482071e+04
 2.1115000e+00   1.1017681e+04
 2.1161799e+00   1.1688404e+04
 2.1208601e+00   1.2748648e+04
 2.1255400e+00   1.4137747e+04
 2.1302199e+00   1.6059974e+04
 2.1349001e+00   1.8285309e+04
 2.1395800e+00   2.0745591e+04
 2.1442599e+00   2.3051267e+04
 2.1489401e+00   2.5051905e+04
 2.1536200e+00   2.6196127e+04
 2.1582999e+00   2.6619410e+04
 2.1629801e+00   2.6445525e+04
 2.1676600e+00   2.5817762e+04
 2.1723399e+00   2.4853447e+04
 2.1770201e+00   2.3762509e+04
 2.1817000e+00   2.2529591e+04
 2.1863799e+00   2.1289489e+04
 2.1910601e+00   1.9939327e+04
 2.1957400e+00   1.8710874e+04
 2.2004199e+00   1.7419313e+04
 2.2051001e+00   1.6335901e+04
 2.2097800e+00   1.5391759e+04
 2.2144599e+00   1.4673139e+04
 2.2191401e+00   1.4022991e+04
 2.2238200e+00   1.3622359e+04
 2.2284999e+00   1.3229489e+04
 2.2331800e+00   1.2957747e+04
 2.2378600e+00   1.2697211e+04
 2.2425399e+00   1.2457130e+04
 2.2472200e+00   1.2171657e+04
 2.2519000e+00   1.1861729e+04
 2.2565801e+00   1.1585724e+04
 2.2612600e+00   1.1347778e+04
 2.2659400e+00   1.1036470e+04
 2.2706201e+00   1.0871134e+04
 2.2753000e+00   1.0723041e+04
 2.2799799e+00   1.0613268e+04
 2.2846601e+00   1.0550601e+04
 2.2893400e+00   1.0533913e+04
 2.2940199e+00   1.0494301e+04
 2.2987001e+00   1.0481939e+04
 2.3033800e+00   1.0482064e+04
 2.3080599e+00   1.0480761e+04
 2.3127401e+00   1.0496351e+04
 2.3174200e+00   1.0502683e+04
 2.3220999e+00   1.0528720e+04
 2.3267801e+00   1.0546330e+04
 2.3314600e+00   1.0556870e+04
 2.3361399e+00   1.0590140e+04
 2.3408201e+00   1.0602220e+04
 2.3455000e+00   1.0629423e+04
 2.3501799e+00   1.0661921e+04
 2.3548601e+00   1.0707784e+04
 2.3595400e+00   1.0754110e+04
 2.3642199e+00   1.0750485e+04
 2.3689001e+00   1.0787514e+04
 2.3735800e+00   1.0818594e+04
 2.3782599e+00   1.0864388e+04
 2.3829401e+00   1.0862353e+04
 2.3876200e+00   1.0908384e+04
 2.3922999e+00   1.0955034e+04
 2.3969800e+00   1.0983638e+04
 2.4016600e+00   1.1018180e+04
 2.4063399e+00   1.1058572e+04
 2.4110200e+00   1.1090502e+04
 2.4157000e+00   1.1116337e+04
 2.4203801e+00   1.1169415e+04
 2.4250600e+00   1.1181775e+04
 2.4297400e+00   1.1220678e+04
 2.4344201e+00   1.1270594e+04
 2.4391000e+00   1.1281879e+04
 2.4437799e+00   1.1341598e+04
 2.4484601e+00   1.1377209e+04
 2.4531400e+00   1.1401275e+04
 2.4578199e+00   1.1423045e+04
 2.4625001e+00   1.1471901e+04
 2.4671800e+00   1.1509616e+04
 2.4718599e+00   1.1547285e+04
 2.4765401e+00   1.1578777e+04
 2.4812200e+00   1.1625449e+04
 2.4858999e+00   1.1649632e+04
 2.4905801e+00   1.1715248e+04
 2.4952600e+00   1.1739346e+04
 2.4999399e+00   1.1781389e+04
 2.5046201e+00   1.1805740e+04
 2.5093000e+00   1.1835438e+04
 2.5139799e+00   1.1894115e+04
 2.5186601e+00   1.1949407e+04
 2.5233400e+00   1.1952154e+04
 2.5280199e+00   1.1999506e+04
 2.5327001e+00   1.2029817e+04
 2.5373800e+00   1.2066428e+04
 2.5420599e+00   1.2108625e+04
 2.5467401e+00   1.2141847e+04
 2.5514200e+00   1.2151072e+04
 2.5560999e+00   1.2174315e+04
 2.5607800e+00   1.2213760e+04
 2.5654600e+00   1.2276543e+04
 2.5701399e+00   1.2304404e+04
 2.5748200e+00   1.2324485e+04
 2.5795000e+00   1.2342718e+04
 2.5841801e+00   1.2374390e+04
 2.5888600e+00   1.2402483e+04
 2.5935400e+00   1.2439808e+04
 2.5982201e+00   1.2472548e+04
 2.6029000e+00   1.2487645e+04
 2.6075799e+00   1.2528213e+04
 2.6122601e+00   1.2529215e+04
 2.6169400e+00   1.2550124e+04
 2.6216199e+00   1.2571160e+04
 2.6263001e+00   1.2595764e+04
 2.6309800e+00   1.2624494e+04
 2.6356599e+00   1.2648854e+04
 2.6403401e+00   1.2662315e+04
 2.6450200e+00   1.2679606e+04
 2.6496999e+00   1.2700478e+04
 2.6543801e+00   1.2728997e+04
 2.6590600e+00   1.2749324e+04
 2.6637399e+00   1.2742073e+04
 2.6684201e+00   1.2765441e+04
 2.6731000e+00   1.2802660e+04
 2.6777799e+00   1.2825737e+04
 2.6824601e+00   1.2807658e+04
 2.6871400e+00   1.2863728e+04
 2.6918199e+00   1.2826674e+04
 2.6965001e+00   1.2867006e+04
 2.7011800e+00   1.2871399e+04
 2.7058599e+00   1.2871375e+04
 2.7105401e+00   1.2883091e+04
 2.7152200e+00   1.2877279e+04
 2.7198999e+00   1.2861570e+04
 2.7245800e+00   1.2896285e+04
 2.7292600e+00   1.2865087e+04
 2.7339399e+00   1.2868347e+04
 2.7386200e+00   1.2882959e+04
 2.7433000e+00   1.2856986e+04
 2.7479801e+00   1.2842109e+04
 2.7526600e+00   1.2846152e+04
 2.7573400e+00   1.2831642e+04
 2.7620201e+00   1.2838953e+04
 2.7667000e+00   1.2827163e+04
 2.7713799e+00   1.2811921e+04
 2.7760601e+00   1.2822697e+04
 2.7807400e+00   1.2807702e+04
 2.7854199e+00   1.2820195e+04
 2.7901001e+00   1.2811238e+04
 2.7947800e+00   1.2782246e+04
 2.7994599e+00   1.2788141e+04
 2.8041401e+00   1.2780992e+04
 2.8088200e+00   1.2752280e+04
 2.8134999e+00   1.2739813e+04
 2.8181801e+00   1.2715367e+04
 2.8228600e+00   1.2702008e+04
 2.8275399e+00   1.2682017e+04
 2.8322201e+00   1.2678357e+04
 2.8369000e+00   1.2638354e+04
 2.8415799e+00   1.2629116e+04
 2.8462601e+00   1.2650278e+04
 2.8509400e+00   1.2633314e+04
 2.8556199e+00   1.2602424e+04
 2.8603001e+00   1.2586460e+04
 2.8649800e+00   1.2567507e+04
 2.8696599e+00   1.2558585e+04
 2.8743401e+00   1.2529268e+04
 2.8790200e+00   1.2533836e+04
 2.8836999e+00   1.2494051e+04
 2.8883801e+00   1.2485167e+04
 2.8930600e+00   1.2472408e+04
 2.8977399e+00   1.2455326e+04
 2.9024200e+00   1.2434180e+04
 2.9071000e+00   1.2416968e+04
 2.9117801e+00   1.2375815e+04
 2.9164600e+00   1.2367208e+04
 2.9211400e+00   1.2353217e+04
 2.9258201e+00   1.2335526e+04
 2.9305000e+00   1.2313807e+04
 2.9351799e+00   1.2300689e+04
 2.9398601e+00   1.2264059e+04
 2.9445400e+00   1.2283851e+04
 2.9492199e+00   1.2238204e+04
 2.9539001e+00   1.2223774e+04
 2.9585800e+00   1.2212892e+04
 2.9632599e+00   1.2167729e+04
 2.9679401e+00   1.2151949e+04
 2.9726200e+00   1.2139813e+04
 2.9772999e+00   1.2106141e+04
 2.9819801e+00   1.2080809e+04
 2.9866600e+00   1.2048280e+04
 2.9913399e+00   1.2037189e+04
 2.9960201e+00   1.2018624e+04
 3.0007000e+00   1.1981850e+04
 3.0053799e+00   1.1957998e+04
 3.0100601e+00   1.1906478e+04
 3.0147400e+00   1.1896447e+04
 3.0194199e+00   1.1879385e+04
 3.0241001e+00   1.1863776e+04
 3.0287800e+00   1.1839810e+04
 3.0334599e+00   1.1810546e+04
 3.0381401e+00   1.1787341e+04
 3.0428200e+00   1.1752017e+04
 3.0474999e+00   1.1712362e+04
 3.0521801e+00   1.1689384e+04
 3.0568600e+00   1.1639787e+04
 3.0615399e+00   1.1623445e+04
 3.0662200e+00   1.1579591e+04
 3.0709000e+00   1.1577269e+04
 3.0755799e+00   1.1541895e+04
 3.0802600e+00   1.1534707e+04
 3.0849400e+00   1.1513396e+04
 3.0896201e+00   1.1472731e+04
 3.0943000e+00   1.1457770e+04
 3.0989799e+00   1.1441245e+04
 3.1036601e+00   1.1396940e+04
 3.1083400e+00   1.1401689e+04
 3.1130199e+00   1.1347718e+04
 3.1177001e+00   1.1341471e+04
 3.1223800e+00   1.1317063e+04
 3.1270599e+00   1.1285709e+04
 3.1317401e+00   1.1266831e+04
 3.1364200e+00   1.1278149e+04
 3.1410999e+00   1.1246553e+04
 3.1457801e+00   1.1232514e+04
 3.1504600e+00   1.1213711e+04
 3.1551399e+00   1.1176380e+04
 3.1598201e+00   1.1164817e+04
 3.1645000e+00   1.1138419e+04
 3.1691799e+00   1.1136176e+04
 3.1738601e+00   1.1106850e+04
 3.1785400e+00   1.1124853e+04
 3.1832199e+00   1.1086184e+04
 3.1879001e+00   1.1103861e+04
 3.1925800e+00   1.1063701e+04
 3.1972599e+00   1.1071165e+04
 3.2019401e+00   1.1012603e+04
 3.2066200e+00   1.1028129e+04
 3.2112999e+00   1.1026847e+04
 3.2159801e+00   1.0971667e+04
 3.2206600e+00   1.0946770e+04
 3.2253399e+00   1.0971518e+04
 3.2300200e+00   1.0908477e+04
 3.2347000e+00   1.0922899e+04
 3.2393799e+00   1.0925577e+04
 3.2440600e+00   1.0892568e+04
 3.2487400e+00   1.0879075e+04
 3.2534201e+00   1.0882037e+04
 3.2581000e+00   1.0847876e+04
 3.2627800e+00   1.0879080e+04
 3.2674601e+00   1.0848979e+04
 3.2721400e+00   1.0828044e+04
 3.2768199e+00   1.0842215e+04
 3.2815001e+00   1.0800986e+04
 3.2861800e+00   1.0799808e+04
 3.2908599e+00   1.0786047e+04
 3.2955401e+00   1.0799394e+04
 3.3002200e+00   1.0778295e+04
 3.3048999e+00   1.0791462e+04
 3.3095801e+00   1.0773496e+04
 3.3142600e+00   1.0803448e+04
 3.3189399e+00   1.0776551e+04
 3.3236201e+00   1.0769794e+04
 3.3283000e+00   1.0760204e+04
 3.3329799e+00   1.0765630e+04
 3.3376601e+00   1.0753704e+04
 3.3423400e+00   1.0754254e+04
 3.3470199e+00   1.0724915e+04
 3.3517001e+00   1.0759525e+04
 3.3563800e+00   1.0720956e+04
 3.3610599e+00   1.0745113e+04
 3.3657401e+00   1.0745557e+04
 3.3704200e+00   1.0726953e+04
 3.3750999e+00   1.0721815e+04
 3.3797801e+00   1.0743243e+04
 3.3844600e+00   1.0729149e+04
 3.3891399e+00   1.0748552e+04
 3.3938200e+00   1.0746056e+04
 3.3985000e+00   1.0744366e+04
 3.4031799e+00   1.0764585e+04
 3.4078600e+00   1.0725193e+04
 3.4125400e+00   1.0772786e+04
 3.4172201e+00   1.0755464e+04
 3.4219000e+00   1.0773423e+04
 3.4265800e+00   1.0789170e+04
 3.4312601e+00   1.0751273e+04
 3.4359400e+00   1.0784371e+04
 3.4406199e+00   1.0793428e+04
 3.4453001e+00   1.0776654e+04
 3.4499800e+00   1.0827812e+04
 3.4546599e+00   1.0768183e+04
 3.4593401e+00   1.0799611e+04
 3.4640200e+00   1.0807778e+04
 3.4686999e+00   1.0792096e+04
 3.4733801e+00   1.0782190e+04
 3.4780600e+00   1.0855320e+04
 3.4827399e+00   1.0783386e+04
 3.4874201e+00   1.0826136e+04
 3.4921000e+00   1.0823410e+04
 3.4967799e+00   1.0772042e+04
 3.5014601e+00   1.0812793e+04
 3.5061400e+00   1.0828559e+04
 3.5108199e+00   1.0791014e+04
 3.5155001e+00   1.0846834e+04
 3.5201800e+00   1.0823827e+04
 3.5248599e+00   1.0794943e+04
 3.5295401e+00   1.0865574e+04
 3.5342200e+00   1.0798451e+04
 3.5388999e+00   1.0883762e+04
 3.5435801e+00   1.0852525e+04
 3.5482600e+00   1.0805524e+04
 3.5529399e+00   1.0832371e+04
 3.5576200e+00   1.0872709e+04
 3.5623000e+00   1.0834868e+04
 3.5669799e+00   1.0918933e+04
 3.5716600e+00   1.0855488e+04
 3.5763400e+00   1.0905188e+04
 3.5810201e+00   1.0881266e+04
 3.5857000e+00   1.0877216e+04
 3.5903800e+00   1.0888143e+04
 3.5950601e+00   1.0960233e+04
 3.5997400e+00   1.0847266e+04
 3.6044199e+00   1.0963427e+04
 3.6091001e+00   1.0924347e+04
 3.6137800e+00   1.0918272e+04
 3.6184599e+00   1.0963992e+04
 3.6231401e+00   1.0956635e+04
 3.6278200e+00   1.0919705e+04
 3.6324999e+00   1.1006528e+04
 3.6371801e+00   1.0922320e+04
 3.6418600e+00   1.1011772e+04
 3.6465399e+00   1.1010238e+04
 3.6512201e+00   1.0974629e+04
 3.6559000e+00   1.1084169e+04
 3.6605799e+00   1.1014234e+04
 3.6652601e+00   1.1058325e+04
 3.6699400e+00   1.1075245e+04
 3.6746199e+00   1.1078027e+04
 3.6793001e+00   1.1084312e+04
 3.6839800e+00   1.1292879e+04
 3.6886599e+00   1.1029683e+04
 3.6933401e+00   1.1291492e+04
 3.6980200e+00   1.1089265e+04
 3.7026999e+00   1.1294416e+04
 3.7073801e+00   1.1253309e+04
 3.7120600e+00   1.1359221e+04
 3.7167399e+00   1.1203687e+04
 3.7214200e+00   1.1536911e+04
 3.7261000e+00   1.1288634e+04
 3.7307799e+00   1.1420753e+04
 3.7354600e+00   1.1446213e+04
 3.7401400e+00   1.1465279e+04
 3.7448201e+00   1.1624553e+04
 3.7495000e+00   1.1529529e+04
 3.7541800e+00   1.1631433e+04
 3.7588601e+00   1.1578097e+04
 3.7635400e+00   1.1672330e+04
 3.7682199e+00   1.1735753e+04
 3.7729001e+00   1.1954305e+04
 3.7775800e+00   1.1692809e+04
 3.7822599e+00   1.2062266e+04
 3.7869401e+00   1.1812426e+04
 3.7916200e+00   1.2117450e+04
 3.7962999e+00   1.2098762e+04
 3.8009801e+00   1.2376625e+04
 3.8056600e+00   1.2021105e+04
 3.8103399e+00   1.2649728e+04
 3.8150201e+00   1.2030386e+04
 3.8197000e+00   1.2893477e+04
 3.8243799e+00   1.2558481e+04
 3.8290601e+00   1.2997495e+04
 3.8337400e+00   1.2615604e+04
 3.8384199e+00   1.3387059e+04
 3.8431001e+00   1.2827780e+04
 3.8477800e+00   1.3545694e+04
 3.8524599e+00   1.3397605e+04
 3.8571401e+00   1.3915342e+04
 3.8618200e+00   1.3869600e+04
 3.8664999e+00   1.3909484e+04
 3.8711801e+00   1.4213682e+04
 3.8758600e+00   1.4661853e+04
 3.8805399e+00   1.4953390e+04
 3.8852201e+00   1.5772531e+04
 3.8899000e+00   1.5685052e+04
 3.8945799e+00   1.6450861e+04
 3.8992600e+00   1.6923451e+04
 3.9039400e+00   1.8525038e+04
 3.9086201e+00   1.8626756e+04
 3.9133000e+00   2.4589680e+04
 3.9179800e+00   2.3315348e+04
 3.9226601e+00   3.4208508e+04
 3.9273400e+00   3.4743893e+04
 3.9320199e+00   5.7693036e+04
 3.9367001e+00   5.5343881e+04
 3.9413800e+00   8.7266381e+04
 3.9460599e+00   7.5122910e+04
 3.9507401e+00   9.2553656e+04
 3.9554200e+00   7.9756901e+04
 3.9600999e+00   9.9191930e+04
 3.9647801e+00   9.5010337e+04
 3.9694600e+00   9.9115468e+04
 3.9741399e+00   1.1938401e+05
 3.9788201e+00   8.9190019e+04
 3.9835000e+00   1.0219918e+05
 3.9881799e+00   5.3659522e+04
 3.9928601e+00   8.4109787e+04
 3.9975400e+00   3.5972781e+04
 4.0022202e+00   4.9176862e+04
 4.0068998e+00   2.6662772e+04
 4.0115800e+00   3.0544320e+04
 4.0162601e+00   1.9436554e+04
 4.0209398e+00   2.0462376e+04
 4.0256200e+00   1.7226034e+04
 4.0303001e+00   1.7641258e+04
 4.0349798e+00   1.5240694e+04
 4.0396600e+00   1.5716986e+04
 4.0443401e+00   1.4800454e+04
 4.0490198e+00   1.3921606e+04
 4.0537000e+00   1.4295504e+04
 4.0583801e+00   1.3140262e+04
 4.0630598e+00   1.3738734e+04
 4.0677400e+00   1.2762874e+04
 4.0724201e+00   1.2967624e+04
 4.0770998e+00   1.2338568e+04
 4.0817800e+00   1.2560708e+04
 4.0864601e+00   1.2252641e+04
 4.0911398e+00   1.2300057e+04
 4.0958200e+00   1.1797533e+04
 4.1005001e+00   1.1765057e+04
 4.1051798e+00   1.1552346e+04
 4.1098599e+00   1.1218597e+04
 4.1145401e+00   1.1498082e+04
 4.1192198e+00   1.1162858e+04
 4.1238999e+00   1.1051740e+04
 4.1285801e+00   1.0876639e+04
 4.1332598e+00   1.0761349e+04
 4.1379399e+00   1.0600159e+04
 4.1426201e+00   1.0820867e+04
 4.1472998e+00   1.0201760e+04
 4.1519799e+00   1.0501713e+04
 4.1566601e+00   1.0150750e+04
 4.1613402e+00   1.0259081e+04
 4.1660199e+00   9.9274646e+03
 4.1707001e+00   1.0116796e+04
 4.1753802e+00   9.7319682e+03
 4.1800599e+00   1.0058325e+04
 4.1847401e+00   9.6036061e+03
 4.1894202e+00   9.8525539e+03
 4.1940999e+00   9.5157656e+03
 4.1987801e+00   9.6517075e+03
 4.2034602e+00   9.5638155e+03
 4.2081399e+00   9.5103013e+03
 4.2128201e+00   9.4251365e+03
 4.2175002e+00   9.5005927e+03
 4.2221799e+00   9.2833099e+03
 4.2268600e+00   9.2226248e+03
 4.2315402e+00   9.3193557e+03
 4.2362199e+00   9.0552895e+03
 4.2409000e+00   9.1861121e+03
 4.2455802e+00   9.0659776e+03
 4.2502599e+00   9.0338844e+03
 4.2549400e+00   9.0015111e+03
 4.2596202e+00   9.2273391e+03
 4.2642999e+00   9.0933286e+03
 4.2689800e+00   9.3041590e+03
 4.2736602e+00   9.2730325e+03
 4.2783399e+00   9.4765073e+03
 4.2830200e+00   9.4111180e+03
 4.2877002e+00   9.6749136e+03
 4.2923799e+00   9.7036845e+03
 4.2970600e+00   9.9403859e+03
 4.3017402e+00   9.7829829e+03
 4.3064198e+00   9.9236412e+03
 4.3111000e+00   9.7257955e+03
 4.3157802e+00   9.7671381e+03
 4.3204598e+00   9.6479716e+03
 4.3251400e+00   9.4842769e+03
 4.3298202e+00   9.4047416e+03
 4.3344998e+00   9.3076127e+03
 4.3391800e+00   9.1940412e+03
 4.3438601e+00   9.2122747e+03
 4.3485398e+00   9.1505012e+03
 4.3532200e+00   9.0906101e+03
 4.3579001e+00   9.0386906e+03
 4.3625798e+00   8.8867044e+03
 4.3672600e+00   8.8394663e+03
 4.3719401e+00   8.7321020e+03
 4.3766198e+00   8.6605986e+03
 4.3813000e+00   8.5863179e+03
 4.3859801e+00   8.4874258e+03
 4.3906598e+00   8.3421680e+03
 4.3953400e+00   8.3168403e+03
 4.4000201e+00   8.1608462e+03
 4.4046998e+00   8.1698011e+03
 4.4093800e+00   8.0305685e+03
 4.4140601e+00   7.9820209e+03
 4.4187398e+00   7.9661105e+03
 4.4234200e+00   7.8878486e+03
 4.4281001e+00   7.7947740e+03
 4.4327798e+00   7.8621304e+03
 4.4374599e+00   7.7463760e+03
 4.4421401e+00   7.7311555e+03
 4.4468198e+00   7.7226816e+03
 4.4514999e+00   7.6378678e+03
 4.4561801e+00   7.6561295e+03
 4.4608598e+00   7.6237760e+03
 4.4655399e+00   7.5721691e+03
 4.4702201e+00   7.5910763e+03
 4.4748998e+00   7.5555701e+03
 4.4795799e+00   7.5100214e+03
 4.4842601e+00   7.5298680e+03
 4.4889398e+00   7.4704635e+03
 4.4936199e+00   7.4477831e+03
 4.4983001e+00   7.4332963e+03
 4.5029802e+00   7.3620350e+03
 4.5076599e+00   7.3260477e+03
 4.5123401e+00   7.2920002e+03
 4.5170202e+00   7.1830119e+03
 4.5216999e+00   7.2150672e+03
 4.5263801e+00   7.1409361e+03
 4.5310602e+00   7.0949969e+03
 4.5357399e+00   7.0942914e+03
 4.5404201e+00   7.0419001e+03
 4.5451002e+00   7.0274387e+03
 4.5497799e+00   7.0105421e+03
 4.5544600e+00   6.9671646e+03
 4.5591402e+00   6.9829115e+03
 4.5638199e+00   6.9412627e+03
 4.5685000e+00   6.8872397e+03
 4.5731802e+00   6.9378379e+03
 4.5778599e+00   6.8896780e+03
 4.5825400e+00   6.8890507e+03
 4.5872202e+00   6.8658003e+03
 4.5918999e+00   6.8446759e+03
 4.5965800e+00   6.8272420e+03
 4.6012602e+00   6.8191180e+03
 4.6059399e+00   6.8084789e+03
 4.6106200e+00   6.7777616e+03
 4.6153002e+00   6.7827704e+03
 4.6199799e+00   6.7451200e+03
 4.6246600e+00   6.7403503e+03
 4.6293402e+00   6.7345465e+03
 4.6340199e+00   6.7138523e+03
 4.6387000e+00   6.7196736e+03
 4.6433802e+00   6.6800800e+03
 4.6480598e+00   6.6784824e+03
 4.6527400e+00   6.6525844e+03
 4.6574202e+00   6.6289732e+03
 4.6620998e+00   6.6503268e+03
 4.6667800e+00   6.6308821e+03
 4.6714602e+00   6.6216214e+03
 4.6761398e+00   6.6189915e+03
 4.6808200e+00   6.5947610e+03
 4.6855001e+00   6.5768514e+03
 4.6901798e+00   6.5902228e+03
 4.6948600e+00   6.6095948e+03
 4.6995401e+00   6.5994564e+03
 4.7042198e+00   6.6081320e+03
 4.7089000e+00   6.5938778e+03
 4.7135801e+00   6.6594558e+03
 4.7182598e+00   6.6578015e+03
 4.7229400e+00   6.7465712e+03
 4.7276201e+00   6.7521613e+03
 4.7322998e+00   6.8177857e+03
 4.7369800e+00   6.8708820e+03
 4.7416601e+00   6.9157581e+03
 4.7463398e+00   6.9556120e+03
 4.7510200e+00   7.0289150e+03
 4.7557001e+00   7.0542073e+03
 4.7603798e+00   7.1449946e+03
 4.7650599e+00   7.2157270e+03
 4.7697401e+00   7.3277260e+03
 4.7744198e+00   7.4556111e+03
 4.7790999e+00   7.6215221e+03
 4.7837801e+00   7.7641097e+03
 4.7884598e+00   8.0054312e+03
 4.7931399e+00   8.2018181e+03
 4.7978201e+00   8.4237230e+03
 4.8024998e+00   8.6390172e+03
 4.8071799e+00   8.8305655e+03
 4.8118601e+00   9.0003754e+03
 4.8165398e+00   9.0951673e+03
 4.8212199e+00   9.2220728e+03
 4.8259001e+00   9.2581678e+03
 4.8305802e+00   9.2576387e+03
 4.8352599e+00   9.2148820e+03
 4.8399401e+00   9.1167007e+03
 4.8446202e+00   8.9360639e+03
 4.8492999e+00   8.7218929e+03
 4.8539801e+00   8.4727590e+03
 4.8586602e+00   8.2015198e+03
 4.8633399e+00   7.9526207e+03
 4.8680201e+00   7.7258397e+03
 4.8727002e+00   7.5268907e+03
 4.8773799e+00   7.3994340e+03
 4.8820601e+00   7.3173760e+03
 4.8867402e+00   7.2544129e+03
 4.8914199e+00   7.2800103e+03
 4.8961000e+00   7.3362612e+03
 4.9007802e+00   7.3754152e+03
 4.9054599e+00   7.4553673e+03
 4.9101400e+00   7.5719166e+03
 4.9148202e+00   7.6668456e+03
 4.9194999e+00   7.7734365e+03
 4.9241800e+00   7.8695027e+03
 4.9288602e+00   7.9558415e+03
 4.9335399e+00   8.0314506e+03
 4.9382200e+00   8.1295746e+03
 4.9429002e+00   8.2007077e+03
 4.9475799e+00   8.3258526e+03
 4.9522600e+00   8.4167180e+03
 4.9569402e+00   8.5466902e+03
 4.9616199e+00   8.6665826e+03
 4.9663000e+00   8.8177452e+03
 4.9709802e+00   8.9309218e+03
 4.9756598e+00   9.0758999e+03
 4.9803400e+00   9.1844005e+03
 4.9850202e+00   9.2800619e+03
 4.9896998e+00   9.3058283e+03
 4.9943800e+00   9.2927346e+03
 4.9990602e+00   9.2190756e+03
 5.0037398e+00   9.0871437e+03
 5.0084200e+00   8.8998035e+03
 5.0131001e+00   8.6732222e+03
 5.0177798e+00   8.4231581e+03
 5.0224600e+00   8.1812509e+03
 5.0271401e+00   7.9081680e+03
 5.0318198e+00   7.6480973e+03
 5.0365000e+00   7.4503869e+03
 5.0411801e+00   7.2434509e+03
 5.0458598e+00   7.0872830e+03
 5.0505400e+00   6.9395712e+03
 5.0552201e+00   6.8498660e+03
 5.0598998e+00   6.7538694e+03
 5.0645800e+00   6.7136148e+03
 5.0692601e+00   6.7024524e+03
 5.0739398e+00   6.7187468e+03
 5.0786200e+00   6.7959063e+03
 5.0833001e+00   6.9274039e+03
 5.0879798e+00   7.0471948e+03
 5.0926600e+00   7.4291987e+03
 5.0973401e+00   7.7107193e+03
 5.1020198e+00   8.1468021e+03
 5.1066999e+00   9.3850938e+03
 5.1113801e+00   1.0335937e+04
 5.1160598e+00   1.2647856e+04
 5.1207399e+00   1.6989620e+04
 5.1254201e+00   2.0800649e+04
 5.1300998e+00   3.0380895e+04
 5.1347799e+00   3.9150549e+04
 5.1394601e+00   4.3475566e+04
 5.1441398e+00   5.1112895e+04
 5.1488199e+00   4.7216333e+04
 5.1535001e+00   4.1342670e+04
 5.1581802e+00   3.5906941e+04
 5.1628599e+00   2.5884939e+04
 5.1675401e+00   1.9189979e+04
 5.1722202e+00   1.4671582e+04
 5.1768999e+00   1.0864772e+04
 5.1815801e+00   9.3593862e+03
 5.1862602e+00   8.0171884e+03
 5.1909399e+00   7.2785705e+03
 5.1956201e+00   7.0335498e+03
 5.2003002e+00   6.7128954e+03
 5.2049799e+00   6.5317525e+03
 5.2096601e+00   6.4103076e+03
 5.2143402e+00   6.3204812e+03
 5.2190199e+00   6.2568443e+03
 5.2237000e+00   6.1884107e+03
 5.2283802e+00   6.1285717e+03
 5.2330599e+00   6.1096133e+03
 5.2377400e+00   6.0868612e+03
 5.2424202e+00   6.0391428e+03
 5.2470999e+00   6.0158940e+03
 5.2517800e+00   6.0081874e+03
 5.2564602e+00   5.9929476e+03
 5.2611399e+00   5.9577396e+03
 5.2658200e+00   5.9544319e+03
 5.2705002e+00   5.9470377e+03
 5.2751799e+00   5.9339625e+03
 5.2798600e+00   5.9204108e+03
 5.2845402e+00   5.8947301e+03
 5.2892199e+00   5.9191790e+03
 5.2939000e+00   5.8963763e+03
 5.2985802e+00   5.8860310e+03
 5.3032598e+00   5.9135061e+03
 5.3079400e+00   5.8795799e+03
 5.3126202e+00   5.8841368e+03
 5.3172998e+00   5.8981349e+03
 5.3219800e+00   5.8514824e+03
 5.3266602e+00   5.8838274e+03
 5.3313398e+00   5.8730218e+03
 5.3360200e+00   5.8392982e+03
 5.3407001e+00   5.8740191e+03
 5.3453798e+00   5.8341527e+03
 5.3500600e+00   5.8363955e+03
 5.3547401e+00   5.8607172e+03
 5.3594198e+00   5.8349960e+03
 5.3641000e+00   5.8536394e+03
 5.3687801e+00   5.8476926e+03
 5.3734598e+00   5.8314053e+03
 5.3781400e+00   5.8618211e+03
 5.3828201e+00   5.8304022e+03
 5.3874998e+00   5.8282399e+03
 5.3921800e+00   5.8742783e+03
 5.3968601e+00   5.8568096e+03
 5.4015398e+00   5.8609635e+03
 5.4062200e+00   5.8820136e+03
 5.4109001e+00   5.8770394e+03
 5.4155798e+00   5.9014701e+03
 5.4202600e+00   5.8935583e+03
 5.4249401e+00   5.8998325e+03
 5.4296198e+00   5.9398492e+03
 5.4342999e+00   5.9395691e+03
 5.4389801e+00   5.9407188e+03
 5.4436598e+00   5.9813685e+03
 5.4483399e+00   5.9743787e+03
 5.4530201e+00   6.0382290e+03
 5.4576998e+00   6.0584314e+03
 5.4623799e+00   6.0684596e+03
 5.4670601e+00   6.1385806e+03
 5.4717398e+00   6.1611900e+03
 5.4764199e+00   6.2225597e+03
 5.4811001e+00   6.3098289e+03
 5.4857798e+00   6.3625326e+03
 5.4904599e+00   6.4698670e+03
 5.4951401e+00   6.5729473e+03
 5.4998202e+00   6.6861633e+03
 5.5044999e+00   6.8961021e+03
 5.5091801e+00   7.0736161e+03
 5.5138602e+00   7.3154887e+03
 5.5185399e+00   7.6453683e+03
 5.5232201e+00   7.9904380e+03
 5.5279002e+00   8.4207939e+03
 5.5325799e+00   8.9431951e+03
 5.5372601e+00   9.4442851e+03
 5.5419402e+00   1.0066112e+04
 5.5466199e+00   1.0582104e+04
 5.5513000e+00   1.1114686e+04
 5.5559802e+00   1.1564723e+04
 5.5606599e+00   1.1843436e+04
 5.5653400e+00   1.1983037e+04
 5.5700202e+00   1.2012569e+04
 5.5746999e+00   1.1890550e+04
 5.5793800e+00   1.1683434e+04
 5.5840602e+00   1.1409777e+04
 5.5887399e+00   1.1036603e+04
 5.5934200e+00   1.0766640e+04
 5.5981002e+00   1.0561303e+04
 5.6027799e+00   1.0417215e+04
 5.6074600e+00   9.7399830e+03
 5.6121402e+00   9.2955172e+03
 5.6168199e+00   8.8798302e+03
 5.6215000e+00   8.5651725e+03
 5.6261802e+00   8.2806122e+03
 5.6308599e+00   8.0412360e+03
 5.6355400e+00   7.8079838e+03
 5.6402202e+00   7.5999192e+03
 5.6448998e+00   7.4408923e+03
 5.6495800e+00   7.2489617e+03
 5.6542602e+00   7.1106934e+03
 5.6589398e+00   6.9845692e+03
 5.6636200e+00   6.8269489e+03
 5.6683002e+00   6.7413700e+03
 5.6729798e+00   6.6355726e+03
 5.6776600e+00   6.5248808e+03
 5.6823401e+00   6.4665112e+03
 5.6870198e+00   6.3869669e+03
 5.6917000e+00   6.3136805e+03
 5.6963801e+00   6.2850995e+03
 5.7010598e+00   6.2197421e+03
 5.7057400e+00   6.1919023e+03
 5.7104201e+00   6.1619376e+03
 5.7150998e+00   6.1059000e+03
 5.7197800e+00   6.1342301e+03
 5.7244601e+00   6.0976730e+03
 5.7291398e+00   6.0715861e+03
 5.7338200e+00   6.0897875e+03
 5.7385001e+00   6.0694311e+03
 5.7431798e+00   6.0811092e+03
 5.7478600e+00   6.0923458e+03
 5.7525401e+00   6.0625018e+03
 5.7572198e+00   6.1045342e+03
 5.7618999e+00   6.0930508e+03
 5.7665801e+00   6.0785456e+03
 5.7712598e+00   6.0969599e+03
 5.7759399e+00   6.0611583e+03
 5.7806201e+00   6.0316674e+03
 5.7852998e+00   6.0578430e+03
 5.7899799e+00   6.0312820e+03
 5.7946601e+00   6.0419708e+03
 5.7993398e+00   6.0345705e+03
 5.8040199e+00   6.0069966e+03
 5.8087001e+00   6.0336272e+03
 5.8133798e+00   6.0134821e+03
 5.8180599e+00   6.0087989e+03
 5.8227401e+00   6.0514387e+03
 5.8274202e+00   6.0253633e+03
 5.8320999e+00   6.0345541e+03
 5.8367801e+00   6.0600822e+03
 5.8414602e+00   6.0571954e+03
 5.8461399e+00   6.1040015e+03
 5.8508201e+00   6.1275154e+03
 5.8555002e+00   6.1394212e+03
 5.8601799e+00   6.2142178e+03
 5.8648601e+00   6.2181573e+03
 5.8695402e+00   6.2804765e+03
 5.8742199e+00   6.3360136e+03
 5.8789001e+00   6.3837936e+03
 5.8835802e+00   6.4778402e+03
 5.8882599e+00   6.5726389e+03
 5.8929400e+00   6.6517981e+03
 5.8976202e+00   6.8411166e+03
 5.9022999e+00   7.0079027e+03
 5.9069800e+00   7.3006345e+03
 5.9116602e+00   7.7387584e+03
 5.9163399e+00   8.3400485e+03
 5.9210200e+00   9.1680802e+03
 5.9257002e+00   1.0423730e+04
 5.9303799e+00   1.1942648e+04
 5.9350600e+00   1.3338617e+04
 5.9397402e+00   1.4125407e+04
 5.9444199e+00   1.4261476e+04
 5.9491000e+00   1.3964552e+04
 5.9537802e+00   1.3068619e+04
 5.9584599e+00   1.1915081e+04
 5.9631400e+00   1.0764919e+04
 5.9678202e+00   9.9456793e+03
 5.9724998e+00   9.3428890e+03
 5.9771800e+00   8.9646299e+03
 5.9818602e+00   8.7315374e+03
 5.9865398e+00   8.5905259e+03
 5.9912200e+00   8.4242364e+03
 5.9959002e+00   8.2576069e+03
 6.0005798e+00   8.1250408e+03
 6.0052600e+00   7.9300746e+03
 6.0099401e+00   7.7949967e+03
 6.0146198e+00   7.6109779e+03
 6.0193000e+00   7.4048958e+03
 6.0239801e+00   7.3089776e+03
 6.0286598e+00   7.1134181e+03
 6.0333400e+00   6.9675047e+03
 6.0380201e+00   6.8760119e+03
 6.0426998e+00   6.7194026e+03
 6.0473800e+00   6.6251451e+03
 6.0520601e+00   6.5324742e+03
 6.0567398e+00   6.4024030e+03
 6.0614200e+00   6.3770447e+03
 6.0661001e+00   6.2741050e+03
 6.0707798e+00   6.2123536e+03
 6.0754600e+00   6.1841587e+03
 6.0801401e+00   6.1295964e+03
 6.0848198e+00   6.0751404e+03
 6.0895000e+00   6.0649434e+03
 6.0941801e+00   6.0026631e+03
 6.0988598e+00   6.0069388e+03
 6.1035399e+00   5.9822650e+03
 6.1082201e+00   5.9493763e+03
 6.1128998e+00   5.9416083e+03
 6.1175799e+00   5.9327346e+03
 6.1222601e+00   5.9137911e+03
 6.1269398e+00   5.9130532e+03
 6.1316199e+00   5.8787495e+03
 6.1363001e+00   5.8949104e+03
 6.1409798e+00   5.8930173e+03
 6.1456599e+00   5.8607736e+03
 6.1503401e+00   5.8807686e+03
 6.1550202e+00   5.8591151e+03
 6.1596999e+00   5.8560355e+03
 6.1643801e+00   5.8667091e+03
 6.1690602e+00   5.8518849e+03
 6.1737399e+00   5.8496238e+03
 6.1784201e+00   5.8692023e+03
 6.1831002e+00   5.8375858e+03
 6.1877799e+00   5.8583683e+03
 6.1924601e+00   5.8406490e+03
 6.1971402e+00   5.8416687e+03
 6.2018199e+00   5.8648926e+03
 6.2065001e+00   5.8679833e+03
 6.2111802e+00   5.8544414e+03
 6.2158599e+00   5.8683422e+03
 6.2205400e+00   5.8572257e+03
 6.2252202e+00   5.8584130e+03
 6.2298999e+00   5.8721768e+03
 6.2345800e+00   5.8522672e+03
 6.2392602e+00   5.8727654e+03
 6.2439399e+00   5.8844536e+03
 6.2486200e+00   5.8766553e+03
 6.2533002e+00   5.8714665e+03
 6.2579799e+00   5.8722339e+03
 6.2626600e+00   5.8820668e+03
 6.2673402e+00   5.8861061e+03
 6.2720199e+00   5.8529680e+03
 6.2767000e+00   5.8987877e+03
 6.2813802e+00   5.8775449e+03
 6.2860599e+00   5.8926384e+03
 6.2907400e+00   5.8872860e+03
 6.2954202e+00   5.9083618e+03
 6.3000998e+00   5.8869830e+03
 6.3047800e+00   5.9268818e+03
 6.3094602e+00   5.8944816e+03
 6.3141398e+00   5.9247650e+03
 6.3188200e+00   5.9229786e+03
 6.3235002e+00   5.9117922e+03
 6.3281798e+00   5.9616557e+03
 6.3328600e+00   5.9383769e+03
 6.3375401e+00   5.9625999e+03
 6.3422198e+00   5.9593857e+03
 6.3469000e+00   5.9412999e+03
 6.3515801e+00   5.9575411e+03
 6.3562598e+00   5.9905673e+03
 6.3609400e+00   5.9479004e+03
 6.3656201e+00   5.9901652e+03
 6.3702998e+00   5.9598232e+03
 6.3749800e+00   5.9897377e+03
 6.3796601e+00   5.9752531e+03
 6.3843398e+00   6.0041265e+03
 6.3890200e+00   5.9876845e+03
 6.3937001e+00   6.0155897e+03
 6.3983798e+00   5.9890677e+03
 6.4030600e+00   6.0190914e+03
 6.4077401e+00   6.0350800e+03
 6.4124198e+00   6.0310516e+03
 6.4171000e+00   6.0762648e+03
 6.4217801e+00   6.0530860e+03
 6.4264598e+00   6.0760251e+03
 6.4311399e+00   6.0847889e+03
 6.4358201e+00   6.0955235e+03
 6.4404998e+00   6.1135946e+03
 6.4451799e+00   6.1450606e+03
 6.4498601e+00   6.1096961e+03
 6.4545398e+00   6.1582198e+03
 6.4592199e+00   6.1302303e+03
 6.4639001e+00   6.1774552e+03
 6.4685798e+00   6.1660838e+03
 6.4732599e+00   6.1975932e+03
 6.4779401e+00   6.1736819e+03
 6.4826198e+00   6.2312204e+03
 6.4872999e+00   6.1896478e+03
 6.4919801e+00   6.2595223e+03
 6.4966602e+00   6.2451218e+03
 6.5013399e+00   6.2416648e+03
 6.5060201e+00   6.2874446e+03
 6.5107002e+00   6.2692872e+03
 6.5153799e+00   6.3128731e+03
 6.5200601e+00   6.3061599e+03
 6.5247402e+00   6.3652702e+03
 6.5294199e+00   6.3037095e+03
 6.5341001e+00   6.3808179e+03
 6.5387802e+00   6.3302118e+03
 6.5434599e+00   6.3951725e+03
 6.5481400e+00   6.3753641e+03
 6.5528202e+00   6.4665817e+03
 6.5574999e+00   6.4182362e+03
 6.5621800e+00   6.4778326e+03
 6.5668602e+00   6.4183595e+03
 6.5715399e+00   6.5458757e+03
 6.5762200e+00   6.4510267e+03
 6.5809002e+00   6.5702177e+03
 6.5855799e+00   6.5016336e+03
 6.5902600e+00   6.5708622e+03
 6.5949402e+00   6.5704445e+03
 6.5996199e+00   6.5933542e+03
 6.6043000e+00   6.6469915e+03
 6.6089802e+00   6.6347848e+03
 6.6136599e+00   6.6845817e+03
 6.6183400e+00   6.6914619e+03
 6.6230202e+00   6.7276650e+03
 6.6276999e+00   6.7057854e+03
 6.6323800e+00   6.8281692e+03
 6.6370602e+00   6.7485739e+03
 6.6417398e+00   6.8581223e+03
 6.6464200e+00   6.8278386e+03
 6.6511002e+00   6.9164741e+03
 6.6557798e+00   6.8831048e+03
 6.6604600e+00   7.0237977e+03
 6.6651402e+00   6.9113220e+03
 6.6698198e+00   7.0197253e+03
 6.6745000e+00   6.9515112e+03
 6.6791801e+00   7.0819087e+03
 6.6838598e+00   7.0610827e+03
 6.6885400e+00   7.0647858e+03
 6.6932201e+00   7.1316974e+03
 6.6978998e+00   7.0821532e+03
 6.7025800e+00   7.1769544e+03
 6.7072601e+00   7.1695169e+03
 6.7119398e+00   7.2228542e+03
 6.7166200e+00   7.2081181e+03
 6.7213001e+00   7.3400035e+03
 6.7259798e+00   7.2430077e+03
 6.7306600e+00   7.3870929e+03
 6.7353401e+00   7.3859752e+03
 6.7400198e+00   7.5051421e+03
 6.7447000e+00   7.4039225e+03
 6.7493801e+00   7.5168342e+03
 6.7540598e+00   7.4567456e+03
 6.7587399e+00   7.6746865e+03
 6.7634201e+00   7.6035346e+03
 6.7680998e+00   7.6917739e+03
 6.7727799e+00   7.7930334e+03
 6.7774601e+00   7.7107360e+03
 6.7821398e+00   7.8832482e+03
 6.7868199e+00   7.8901302e+03
 6.7915001e+00   8.0314426e+03
 6.7961798e+00   8.0183688e+03
 6.8008599e+00   8.1942743e+03
 6.8055401e+00   8.1450472e+03
 6.8102198e+00   8.4055063e+03
 6.8148999e+00   8.5211722e+03
 6.8195801e+00   8.7530981e+03
 6.8242602e+00   8.8767412e+03
 6.8289399e+00   9.3677941e+03
 6.8336201e+00   9.7140023e+03
 6.8383002e+00   1.0586485e+04
 6.8429799e+00   1.2418598e+04
 6.8476601e+00   1.6820322e+04
 6.8523402e+00   1.8164036e+04
 6.8570199e+00   1.9749047e+04
 6.8617001e+00   3.1159707e+04
 6.8663802e+00   3.3358653e+04
 6.8710599e+00   3.9398120e+04
 6.8757401e+00   4.0678117e+04
 6.8804202e+00   3.3745129e+04
 6.8850999e+00   3.5916247e+04
 6.8897800e+00   2.5521152e+04
 6.8944602e+00   2.7680473e+04
 6.8991399e+00   2.6804828e+04
 6.9038200e+00   1.7079738e+04
 6.9085002e+00   1.3173906e+04
 6.9131799e+00   1.2427090e+04
 6.9178600e+00   1.1273584e+04
 6.9225402e+00   1.0737742e+04
 6.9272199e+00   1.0710977e+04
 6.9319000e+00   1.0214195e+04
 6.9365802e+00   1.0085954e+04
 6.9412599e+00   9.8503792e+03
 6.9459400e+00   9.7368062e+03
 6.9506202e+00   9.9020761e+03
 6.9552999e+00   9.6825516e+03
 6.9599800e+00   9.7001029e+03
 6.9646602e+00   9.4417452e+03
 6.9693398e+00   9.3583641e+03
 6.9740200e+00   9.3157149e+03
 6.9787002e+00   9.3856806e+03
 6.9833798e+00   9.1379783e+03
 6.9880600e+00   9.2589255e+03
 6.9927402e+00   8.9623042e+03
 6.9974198e+00   9.0459909e+03
 7.0021000e+00   8.8467247e+03
 7.0067801e+00   8.9779117e+03
 7.0114598e+00   8.8013961e+03
 7.0161400e+00   8.7858866e+03
 7.0208201e+00   8.6387312e+03
 7.0254998e+00   8.6025473e+03
 7.0301800e+00   8.5268132e+03
 7.0348601e+00   8.4820427e+03
 7.0395398e+00   8.4453628e+03
 7.0442200e+00   8.2590423e+03
 7.0489001e+00   8.2900393e+03
 7.0535798e+00   8.1465957e+03
 7.0582600e+00   8.1745935e+03
 7.0629401e+00   8.1152855e+03
 7.0676198e+00   8.0543595e+03
 7.0723000e+00   7.9256120e+03
 7.0769801e+00   7.8592652e+03
 7.0816598e+00   7.6967485e+03
 7.0863400e+00   7.7723673e+03
 7.0910201e+00   7.5231873e+03
 7.0956998e+00   7.5603698e+03
 7.1003799e+00   7.4523700e+03
 7.1050601e+00   7.4155566e+03
 7.1097398e+00   7.3400503e+03
 7.1144199e+00   7.3445675e+03
 7.1191001e+00   7.2764213e+03
 7.1237798e+00   7.2583287e+03
 7.1284599e+00   7.2118860e+03
 7.1331401e+00   7.1607045e+03
 7.1378198e+00   7.1894886e+03
 7.1424999e+00   7.1292132e+03
 7.1471801e+00   7.1369634e+03
 7.1518602e+00   7.0887213e+03
 7.1565399e+00   7.0774297e+03
 7.1612201e+00   7.0506915e+03
 7.1659002e+00   7.0554582e+03
 7.1705799e+00   6.9770243e+03
 7.1752601e+00   7.0594265e+03
 7.1799402e+00   6.9418628e+03
 7.1846199e+00   6.9973809e+03
 7.1893001e+00   6.9408092e+03
 7.1939802e+00   6.9695668e+03
 7.1986599e+00   6.9113380e+03
 7.2033401e+00   6.9106120e+03
 7.2080202e+00   6.8887332e+03
 7.2126999e+00   6.9046136e+03
 7.2173800e+00   6.8743865e+03
 7.2220602e+00   6.8723352e+03
 7.2267399e+00   6.8754704e+03
 7.2314200e+00   6.8465843e+03
 7.2361002e+00   6.8648585e+03
 7.2407799e+00   6.8369011e+03
 7.2454600e+00   6.8679140e+03
 7.2501402e+00   6.8618645e+03
 7.2548199e+00   6.8797016e+03
 7.2595000e+00   6.8416944e+03
 7.2641802e+00   6.9153104e+03
 7.2688599e+00   6.8357186e+03
 7.2735400e+00   6.8906326e+03
 7.2782202e+00   6.8307364e+03
 7.2828999e+00   6.8686589e+03
 7.2875800e+00   6.8305784e+03
 7.2922602e+00   6.8379960e+03
 7.2969398e+00   6.8106031e+03
 7.3016200e+00   6.8203520e+03
 7.3063002e+00   6.8076642e+03
 7.3109798e+00   6.8080371e+03
 7.3156600e+00   6.8212318e+03
 7.3203402e+00   6.8297474e+03
 7.3250198e+00   6.8366001e+03
 7.3297000e+00   6.8334192e+03
 7.3343801e+00   6.8656990e+03
 7.3390598e+00   6.8548005e+03
 7.3437400e+00   6.8910369e+03
 7.3484201e+00   6.8735285e+03
 7.3530998e+00   6.9064640e+03
 7.3577800e+00   6.8830188e+03
 7.3624601e+00   6.9222532e+03
 7.3671398e+00   6.8905605e+03
 7.3718200e+00   6.9337129e+03
 7.3765001e+00   6.9355249e+03
 7.3811798e+00   6.9309814e+03
 7.3858600e+00   6.9444475e+03
 7.3905401e+00   6.9567330e+03
 7.3952198e+00   6.9549904e+03
 7.3999000e+00   6.9793351e+03
 7.4045801e+00   6.9875527e+03
 7.4092598e+00   6.9834511e+03
 7.4139400e+00   7.0272768e+03
 7.4186201e+00   7.0123234e+03
 7.4232998e+00   7.0432057e+03
 7.4279799e+00   7.0708455e+03
 7.4326601e+00   7.0898283e+03
 7.4373398e+00   7.1162169e+03
 7.4420199e+00   7.1459965e+03
 7.4467001e+00   7.1656094e+03
 7.4513798e+00   7.1955473e+03
 7.4560599e+00   7.2106148e+03
 7.4607401e+00   7.2211752e+03
 7.4654198e+00   7.2631241e+03
 7.4700999e+00   7.2606345e+03
 7.4747801e+00   7.2961573e+03
 7.4794598e+00   7.2769121e+03
 7.4841399e+00   7.2854745e+03
 7.4888201e+00   7.2941951e+03
 7.4935002e+00   7.3037328e+03
 7.4981799e+00   7.2932768e+03
 7.5028601e+00   7.3151682e+03
 7.5075402e+00   7.3101900e+03
 7.5122199e+00   7.3241421e+03
 7.5169001e+00   7.3139255e+03
 7.5215802e+00   7.3163674e+03
 7.5262599e+00   7.3320849e+03
 7.5309401e+00   7.3264661e+03
 7.5356202e+00   7.3353696e+03
 7.5402999e+00   7.3404977e+03
 7.5449800e+00   7.3524474e+03
 7.5496602e+00   7.3365542e+03
 7.5543399e+00   7.3508042e+03
 7.5590200e+00   7.3331453e+03
 7.5637002e+00   7.3622883e+03
 7.5683799e+00   7.3169118e+03
 7.5730600e+00   7.3247164e+03
 7.5777402e+00   7.3121470e+03
 7.5824199e+00   7.3032605e+03
 7.5871000e+00   7.2577512e+03
 7.5917802e+00   7.2720817e+03
 7.5964599e+00   7.2165286e+03
 7.6011400e+00   7.2065950e+03
 7.6058202e+00   7.1289964e+03
 7.6104999e+00   7.0836806e+03
 7.6151800e+00   7.0404352e+03
 7.6198602e+00   6.9307923e+03
 7.6245399e+00   6.8893193e+03
 7.6292200e+00   6.8012833e+03
 7.6339002e+00   6.7516994e+03
 7.6385798e+00   6.6696884e+03
 7.6432600e+00   6.6460176e+03
 7.6479402e+00   6.5797664e+03
 7.6526198e+00   6.5762730e+03
 7.6573000e+00   6.4897750e+03
 7.6619802e+00   6.4952138e+03
 7.6666598e+00   6.4362396e+03
 7.6713400e+00   6.4633888e+03
 7.6760201e+00   6.3913037e+03
 7.6806998e+00   6.4333347e+03
 7.6853800e+00   6.3796495e+03
 7.6900601e+00   6.4086129e+03
 7.6947398e+00   6.3774300e+03
 7.6994200e+00   6.3778621e+03
 7.7041001e+00   6.3810974e+03
 7.7087798e+00   6.3640464e+03
 7.7134600e+00   6.3679930e+03
 7.7181401e+00   6.3290660e+03
 7.7228198e+00   6.3790707e+03
 7.7275000e+00   6.3377647e+03
 7.7321801e+00   6.3640382e+03
 7.7368598e+00   6.3282163e+03
 7.7415400e+00   6.3833749e+03
 7.7462201e+00   6.3347898e+03
 7.7508998e+00   6.3872016e+03
 7.7555799e+00   6.3173667e+03
 7.7602601e+00   6.4098407e+03
 7.7649398e+00   6.3118073e+03
 7.7696199e+00   6.3710977e+03
 7.7743001e+00   6.3492849e+03
 7.7789798e+00   6.3754566e+03
 7.7836599e+00   6.3792391e+03
 7.7883401e+00   6.3600199e+03
 7.7930198e+00   6.3908350e+03
 7.7976999e+00   6.3768842e+03
 7.8023801e+00   6.4123998e+03
 7.8070598e+00   6.3984247e+03
 7.8117399e+00   6.4106531e+03
 7.8164201e+00   6.3668547e+03
 7.8211002e+00   6.4564129e+03
 7.8257799e+00   6.3685145e+03
 7.8304601e+00   6.4646136e+03
 7.8351402e+00   6.4245637e+03
 7.8398199e+00   6.5034619e+03
 7.8445001e+00   6.3999886e+03
 7.8491802e+00   6.4991062e+03
 7.8538599e+00   6.4360047e+03
 7.8585401e+00   6.6092961e+03
 7.8632202e+00   6.4779387e+03
 7.8678999e+00   6.5603020e+03
 7.8725801e+00   6.5614180e+03
 7.8772602e+00   6.5970155e+03
 7.8819399e+00   6.6684265e+03
 7.8866200e+00   6.7021040e+03
 7.8913002e+00   6.8163074e+03
 7.8959799e+00   6.6923874e+03
 7.9006600e+00   7.1539024e+03
 7.9053402e+00   6.8936183e+03
 7.9100199e+00   8.2895325e+03
 7.9147000e+00   7.7955022e+03
 7.9193802e+00   1.0063607e+04
 7.9240599e+00   8.6521441e+03
 7.9287400e+00   1.7392703e+04
 7.9334202e+00   1.2367521e+04
 7.9380999e+00   3.0050972e+04
 7.9427800e+00   1.9120912e+04
 7.9474602e+00   2.6572428e+04
 7.9521399e+00   1.8209602e+04
 7.9568200e+00   2.3289308e+04
 7.9615002e+00   1.8866680e+04
 7.9661798e+00   1.3938071e+04
 7.9708600e+00   1.3975755e+04
 7.9755402e+00   8.3897976e+03
 7.9802198e+00   8.7644108e+03
 7.9849000e+00   7.3158611e+03
 7.9895802e+00   7.2189020e+03
 7.9942598e+00   6.7701538e+03
 7.9989400e+00   6.7252655e+03
 8.0036201e+00   6.4884513e+03
 8.0082998e+00   6.5323229e+03
 8.0129805e+00   6.4139217e+03
 8.0176601e+00   6.4943361e+03
 8.0223398e+00   6.3026110e+03
 8.0270205e+00   6.3723866e+03
 8.0317001e+00   6.2185804e+03
 8.0363798e+00   6.3276747e+03
 8.0410604e+00   6.2641603e+03
 8.0457401e+00   6.2677489e+03
 8.0504198e+00   6.2193008e+03
 8.0551004e+00   6.1882339e+03
 8.0597801e+00   6.2024656e+03
 8.0644598e+00   6.1676353e+03
 8.0691404e+00   6.2686330e+03
 8.0738201e+00   6.1855452e+03
 8.0784998e+00   6.2469036e+03
 8.0831804e+00   6.1803896e+03
 8.0878601e+00   6.2938846e+03
 8.0925398e+00   6.2202701e+03
 8.0972204e+00   6.3630576e+03
 8.1019001e+00   6.2762425e+03
 8.1065798e+00   6.3559941e+03
 8.1112604e+00   6.2943057e+03
 8.1159401e+00   6.3699333e+03
 8.1206198e+00   6.3254422e+03
 8.1253004e+00   6.3601348e+03
 8.1299801e+00   6.3465552e+03
 8.1346598e+00   6.3310561e+03
 8.1393404e+00   6.3135082e+03
 8.1440201e+00   6.2896035e+03
 8.1486998e+00   6.3538979e+03
 8.1533804e+00   6.2772204e+03
 8.1580601e+00   6.3494234e+03
 8.1627398e+00   6.3039759e+03
 8.1674204e+00   6.3839533e+03
 8.1721001e+00   6.3473860e+03
 8.1767797e+00   6.4294676e+03
 8.1814604e+00   6.4082328e+03
 8.1861401e+00   6.5018586e+03
 8.1908197e+00   6.4885465e+03
 8.1955004e+00   6.6024359e+03
 8.2001801e+00   6.6337303e+03
 8.2048597e+00   6.7375552e+03
 8.2095404e+00   6.7983449e+03
 8.2142200e+00   6.8769184e+03
 8.2188997e+00   6.9735844e+03
 8.2235804e+00   7.0527996e+03
 8.2282600e+00   7.1493737e+03
 8.2329397e+00   7.2153859e+03
 8.2376204e+00   7.3139828e+03
 8.2423000e+00   7.3542202e+03
 8.2469797e+00   7.4253595e+03
 8.2516603e+00   7.4358422e+03
 8.2563400e+00   7.4921867e+03
 8.2610197e+00   7.4816278e+03
 8.2657003e+00   7.5084067e+03
 8.2703800e+00   7.5017425e+03
 8.2750597e+00   7.5247315e+03
 8.2797403e+00   7.4895496e+03
 8.2844200e+00   7.4815924e+03
 8.2890997e+00   7.4243945e+03
 8.2937803e+00   7.3601311e+03
 8.2984600e+00   7.3028284e+03
 8.3031397e+00   7.1953946e+03
 8.3078203e+00   7.0942853e+03
 8.3125000e+00   6.9436142e+03
 8.3171797e+00   6.8257131e+03
 8.3218603e+00   6.6646265e+03
 8.3265400e+00   6.5608664e+03
 8.3312197e+00   6.4122307e+03
 8.3359003e+00   6.3041327e+03
 8.3405800e+00   6.1721101e+03
 8.3452597e+00   6.1006220e+03
 8.3499403e+00   6.0042184e+03
 8.3546200e+00   5.9906027e+03
 8.3592997e+00   5.9410701e+03
 8.3639803e+00   5.9384131e+03
 8.3686600e+00   6.0025200e+03
 8.3733397e+00   6.1365516e+03
 8.3780203e+00   6.3615660e+03
 8.3827000e+00   6.8302661e+03
 8.3873796e+00   7.4740756e+03
 8.3920603e+00   8.3770970e+03
 8.3967400e+00   9.4003357e+03
 8.4014196e+00   1.0175424e+04
 8.4061003e+00   1.0914894e+04
 8.4107800e+00   1.0728851e+04
 8.4154596e+00   1.0090701e+04
 8.4201403e+00   9.3674350e+03
 8.4248199e+00   8.3352570e+03
 8.4294996e+00   7.4773562e+03
 8.4341803e+00   6.8448485e+03
 8.4388599e+00   6.4402180e+03
 8.4435396e+00   6.2367418e+03
 8.4482203e+00   6.0676520e+03
 8.4528999e+00   6.0080636e+03
 8.4575796e+00   6.0020281e+03
 8.4622602e+00   5.9869961e+03
 8.4669399e+00   5.9977095e+03
 8.4716196e+00   6.0235875e+03
 8.4763002e+00   6.0458288e+03
 8.4809799e+00   6.0743662e+03
 8.4856596e+00   6.1204447e+03
 8.4903402e+00   6.1507994e+03
 8.4950199e+00   6.2051899e+03
 8.4996996e+00   6.2287023e+03
 8.5043802e+00   6.2846995e+03
 8.5090599e+00   6.3077501e+03
 8.5137396e+00   6.3754134e+03
 8.5184202e+00   6.3979960e+03
 8.5230999e+00   6.4680896e+03
 8.5277796e+00   6.5001660e+03
 8.5324602e+00   6.5670616e+03
 8.5371399e+00   6.5992628e+03
 8.5418196e+00   6.6442634e+03
 8.5465002e+00   6.6868056e+03
 8.5511799e+00   6.7222068e+03
 8.5558596e+00   6.7572504e+03
 8.5605402e+00   6.7467544e+03
 8.5652199e+00   6.8031520e+03
 8.5698996e+00   6.7686937e+03
 8.5745802e+00   6.7958135e+03
 8.5792599e+00   6.7593088e+03
 8.5839396e+00   6.7495969e+03
 8.5886202e+00   6.7086844e+03
 8.5932999e+00   6.6848429e+03
 8.5979795e+00   6.6201478e+03
 8.6026602e+00   6.5725577e+03
 8.6073399e+00   6.5156580e+03
 8.6120195e+00   6.4527133e+03
 8.6167002e+00   6.3907606e+03
 8.6213799e+00   6.3096947e+03
 8.6260595e+00   6.2660036e+03
 8.6307402e+00   6.1858741e+03
 8.6354198e+00   6.1398357e+03
 8.6400995e+00   6.0700692e+03
 8.6447802e+00   6.0373891e+03
 8.6494598e+00   5.9574336e+03
 8.6541405e+00   5.9224030e+03
 8.6588202e+00   5.8651083e+03
 8.6634998e+00   5.8369209e+03
 8.6681805e+00   5.7986935e+03
 8.6728601e+00   5.7674767e+03
 8.6775398e+00   5.7247348e+03
 8.6822205e+00   5.7092362e+03
 8.6869001e+00   5.6787282e+03
 8.6915798e+00   5.6692900e+03
 8.6962605e+00   5.6494058e+03
 8.7009401e+00   5.6138602e+03
 8.7056198e+00   5.6120859e+03
 8.7103004e+00   5.5985297e+03
 8.7149801e+00   5.5770917e+03
 8.7196598e+00   5.5655543e+03
 8.7243404e+00   5.5523029e+03
 8.7290201e+00   5.5324850e+03
 8.7336998e+00   5.5296897e+03
 8.7383804e+00   5.5184607e+03
 8.7430601e+00   5.5207900e+03
 8.7477398e+00   5.4983521e+03
 8.7524204e+00   5.5001950e+03
 8.7571001e+00   5.4902004e+03
 8.7617798e+00   5.4617199e+03
 8.7664604e+00   5.4674116e+03
 8.7711401e+00   5.4475057e+03
 8.7758198e+00   5.4290498e+03
 8.7805004e+00   5.4293217e+03
 8.7851801e+00   5.4227108e+03
 8.7898598e+00   5.4118252e+03
 8.7945404e+00   5.4143069e+03
 8.7992201e+00   5.3675248e+03
 8.8038998e+00   5.3751878e+03
 8.8085804e+00   5.3683416e+03
 8.8132601e+00   5.3710936e+03
 8.8179398e+00   5.3645001e+03
 8.8226204e+00   5.3625530e+03
 8.8273001e+00   5.3452179e+03
 8.8319798e+00   5.4193133e+03
 8.8366604e+00   5.4009805e+03
 8.8413401e+00   5.5448992e+03
 8.8460197e+00   5.7253991e+03
 8.8507004e+00   6.0450640e+03
 8.8553801e+00   6.2109590e+03
 8.8600597e+00   6.7842553e+03
 8.8647404e+00   6.2571390e+03
 8.8694201e+00   7.3845542e+03
 8.8740997e+00   6.6405671e+03
 8.8787804e+00   6.0493363e+03
 8.8834600e+00   6.4971153e+03
 8.8881397e+00   5.8133763e+03
 8.8928204e+00   5.5075458e+03
 8.8975000e+00   5.4304116e+03
 8.9021797e+00   5.2330577e+03
 8.9068604e+00   5.1539510e+03
 8.9115400e+00   5.1421029e+03
 8.9162197e+00   5.1025012e+03
 8.9209003e+00   5.0889477e+03
 8.9255800e+00   5.0806248e+03
 8.9302597e+00   5.0623968e+03
 8.9349403e+00   5.0595430e+03
 8.9396200e+00   5.0375410e+03
 8.9442997e+00   5.0524406e+03
 8.9489803e+00   5.0400277e+03
 8.9536600e+00   5.0440576e+03
 8.9583397e+00   5.0258104e+03
 8.9630203e+00   5.0308367e+03
 8.9677000e+00   5.0368583e+03
 8.9723797e+00   5.0318324e+03
 8.9770603e+00   5.0198012e+03
 8.9817400e+00   5.0377742e+03
 8.9864197e+00   5.0343231e+03
 8.9911003e+00   5.0332428e+03
 8.9957800e+00   5.0258690e+03
 9.0004597e+00   5.0204403e+03
 9.0051403e+00   5.0208324e+03
 9.0098200e+00   5.0057158e+03
 9.0144997e+00   5.0170505e+03
 9.0191803e+00   5.0016198e+03
 9.0238600e+00   4.9796390e+03
 9.0285397e+00   4.9887852e+03
 9.0332203e+00   4.9873719e+03
 9.0379000e+00   4.9776979e+03
 9.0425797e+00   4.9786981e+03
 9.0472603e+00   4.9632946e+03
 9.0519400e+00   4.9664376e+03
 9.0566196e+00   4.9482823e+03
 9.0613003e+00   4.9573625e+03
 9.0659800e+00   4.9537699e+03
 9.0706596e+00   4.9589313e+03
 9.0753403e+00   4.9479450e+03
 9.0800200e+00   4.9576717e+03
 9.0846996e+00   4.9386827e+03
 9.0893803e+00   4.9580969e+03
 9.0940599e+00   4.9525714e+03
 9.0987396e+00   4.9530494e+03
 9.1034203e+00   4.9589265e+03
 9.1080999e+00   4.9617619e+03
 9.1127796e+00   4.9619190e+03
 9.1174603e+00   4.9693717e+03
 9.1221399e+00   4.9707078e+03
 9.1268196e+00   4.9777406e+03
 9.1315002e+00   4.9960106e+03
 9.1361799e+00   4.9827630e+03
 9.1408596e+00   5.0037539e+03
 9.1455402e+00   4.9897834e+03
 9.1502199e+00   5.0095157e+03
 9.1548996e+00   5.0199829e+03
 9.1595802e+00   5.0233855e+03
 9.1642599e+00   5.0359341e+03
 9.1689396e+00   5.0447795e+03
 9.1736202e+00   5.0480827e+03
 9.1782999e+00   5.0675400e+03
 9.1829796e+00   5.0821566e+03
 9.1876602e+00   5.0864838e+03
 9.1923399e+00   5.1164414e+03
 9.1970196e+00   5.1106147e+03
 9.2017002e+00   5.1436262e+03
 9.2063799e+00   5.1481963e+03
 9.2110596e+00   5.1768217e+03
 9.2157402e+00   5.1945232e+03
 9.2204199e+00   5.2156801e+03
 9.2250996e+00   5.2350105e+03
 9.2297802e+00   5.2594147e+03
 9.2344599e+00   5.2761589e+03
 9.2391396e+00   5.2952394e+03
 9.2438202e+00   5.3282432e+03
 9.2484999e+00   5.3518641e+03
 9.2531796e+00   5.3785740e+03
 9.2578602e+00   5.4125384e+03
 9.2625399e+00   5.4354830e+03
 9.2672195e+00   5.4765991e+03
 9.2719002e+00   5.4965188e+03
 9.2765799e+00   5.5302828e+03
 9.2812595e+00   5.5610006e+03
 9.2859402e+00   5.5745318e+03
 9.2906199e+00   5.6043800e+03
 9.2952995e+00   5.6136905e+03
 9.2999802e+00   5.6435382e+03
 9.3046598e+00   5.6578368e+03
 9.3093395e+00   5.6645627e+03
 9.3140202e+00   5.6835587e+03
 9.3186998e+00   5.6921881e+03
 9.3233805e+00   5.6987228e+03
 9.3280602e+00   5.7111458e+03
 9.3327398e+00   5.7062503e+03
 9.3374205e+00   5.7206926e+03
 9.3421001e+00   5.7098688e+03
 9.3467798e+00   5.7032476e+03
 9.3514605e+00   5.6899598e+03
 9.3561401e+00   5.6652238e+03
 9.3608198e+00   5.6524965e+03
 9.3655005e+00   5.6288932e+03
 9.3701801e+00   5.6076995e+03
 9.3748598e+00   5.5664211e+03
 9.3795404e+00   5.5528294e+03
 9.3842201e+00   5.5160983e+03
 9.3888998e+00   5.4767616e+03
 9.3935804e+00   5.4469952e+03
 9.3982601e+00   5.4185696e+03
 9.4029398e+00   5.3839996e+03
 9.4076204e+00   5.3581583e+03
 9.4123001e+00   5.3283274e+03
 9.4169798e+00   5.3093028e+03
 9.4216604e+00   5.2898917e+03
 9.4263401e+00   5.2579076e+03
 9.4310198e+00   5.2530592e+03
 9.4357004e+00   5.2257845e+03
 9.4403801e+00   5.2213980e+03
 9.4450598e+00   5.1990576e+03
 9.4497404e+00   5.1972930e+03
 9.4544201e+00   5.1829812e+03
 9.4590998e+00   5.1810366e+03
 9.4637804e+00   5.1891982e+03
 9.4684601e+00   5.1867041e+03
 9.4731398e+00   5.1812254e+03
 9.4778204e+00   5.1933023e+03
 9.4825001e+00   5.1936977e+03
 9.4871798e+00   5.2022463e+03
 9.4918604e+00   5.2030741e+03
 9.4965401e+00   5.2004037e+03
 9.5012197e+00   5.2227693e+03
 9.5059004e+00   5.2223293e+03
 9.5105801e+00   5.2269856e+03
 9.5152597e+00   5.2167578e+03
 9.5199404e+00   5.2172321e+03
 9.5246201e+00   5.2199262e+03
 9.5292997e+00   5.2347481e+03
 9.5339804e+00   5.2190920e+03
 9.5386600e+00   5.2394220e+03
 9.5433397e+00   5.2324981e+03
 9.5480204e+00   5.2455651e+03
 9.5527000e+00   5.2507184e+03
 9.5573797e+00   5.2592330e+03
 9.5620604e+00   5.2718390e+03
 9.5667400e+00   5.2728647e+03
 9.5714197e+00   5.2806905e+03
 9.5761003e+00   5.2922423e+03
 9.5807800e+00   5.3057828e+03
 9.5854597e+00   5.3047349e+03
 9.5901403e+00   5.3337822e+03
 9.5948200e+00   5.3212696e+03
 9.5994997e+00   5.3453347e+03
 9.6041803e+00   5.3483070e+03
 9.6088600e+00   5.3634055e+03
 9.6135397e+00   5.3671720e+03
 9.6182203e+00   5.3697731e+03
 9.6229000e+00   5.3624852e+03
 9.6275797e+00   5.3684457e+03
 9.6322603e+00   5.3637590e+03
 9.6369400e+00   5.3749806e+03
 9.6416197e+00   5.3640394e+03
 9.6463003e+00   5.3670730e+03
 9.6509800e+00   5.3642344e+03
 9.6556597e+00   5.3693060e+03
 9.6603403e+00   5.3790954e+03
 9.6650200e+00   5.3896807e+03
 9.6696997e+00   5.3908910e+03
 9.6743803e+00   5.4118185e+03
 9.6790600e+00   5.4426387e+03
 9.6837397e+00   5.4617142e+03
 9.6884203e+00   5.5465274e+03
 9.6931000e+00   5.5578376e+03
 9.6977797e+00   5.6052745e+03
 9.7024603e+00   6.0311285e+03
 9.7071400e+00   6.1741374e+03
 9.7118196e+00   6.0272236e+03
 9.7165003e+00   6.5105211e+03
 9.7211800e+00   6.0865215e+03
 9.7258596e+00   6.0739526e+03
 9.7305403e+00   5.7665377e+03
 9.7352200e+00   5.6095799e+03
 9.7398996e+00   5.5568453e+03
 9.7445803e+00   5.3769843e+03
 9.7492599e+00   5.2949266e+03
 9.7539396e+00   5.2878483e+03
 9.7586203e+00   5.2119906e+03
 9.7632999e+00   5.1769183e+03
 9.7679796e+00   5.1782010e+03
 9.7726603e+00   5.1599709e+03
 9.7773399e+00   5.1768579e+03
 9.7820196e+00   5.1721171e+03
 9.7867002e+00   5.1794754e+03
 9.7913799e+00   5.2030904e+03
 9.7960596e+00   5.2148352e+03
 9.8007402e+00   5.2473939e+03
 9.8054199e+00   5.3029642e+03
 9.8100996e+00   5.3537987e+03
 9.8147802e+00   5.4430154e+03
 9.8194599e+00   5.5865560e+03
 9.8241396e+00   5.7810813e+03
 9.8288202e+00   6.1018851e+03
 9.8334999e+00   6.5998721e+03
 9.8381796e+00   7.3598899e+03
 9.8428602e+00   8.3778111e+03
 9.8475399e+00   9.8609134e+03
 9.8522196e+00   1.1114885e+04
 9.8569002e+00   1.2627628e+04
 9.8615799e+00   1.3043258e+04
 9.8662596e+00   1.3198949e+04
 9.8709402e+00   1.2210154e+04
 9.8756199e+00   1.1179097e+04
 9.8802996e+00   9.5953332e+03
 9.8849802e+00   8.3848634e+03
 9.8896599e+00   7.3584172e+03
 9.8943396e+00   6.6818252e+03
 9.8990202e+00   6.2119520e+03
 9.9036999e+00   5.9087378e+03
 9.9083796e+00   5.7340328e+03
 9.9130602e+00   5.5970132e+03
 9.9177399e+00   5.5371456e+03
 9.9224195e+00   5.4933971e+03
 9.9271002e+00   5.4668341e+03
 9.9317799e+00   5.4426462e+03
 9.9364595e+00   5.4363320e+03
 9.9411402e+00   5.4316059e+03
 9.9458199e+00   5.4096222e+03
 9.9504995e+00   5.4061939e+03
 9.9551802e+00   5.4071698e+03
 9.9598598e+00   5.3922038e+03
 9.9645395e+00   5.3984337e+03
 9.9692202e+00   5.3953223e+03
 9.9738998e+00   5.4004843e+03
 9.9785805e+00   5.3815242e+03
 9.9832602e+00   5.3907204e+03
 9.9879398e+00   5.4008698e+03
 9.9926205e+00   5.3876178e+03
 9.9973001e+00   5.3936490e+03
 1.0001980e+01   5.3875141e+03
 1.0006660e+01   5.3638572e+03
 1.0011340e+01   5.3573837e+03
 1.0016020e+01   5.3583701e+03
 1.0020700e+01   5.3412420e+03
 1.0025380e+01   5.3208141e+03
 1.0030060e+01   5.3022180e+03
 1.0034740e+01   5.2908960e+03
 1.0039420e+01   5.2705016e+03
 1.0044100e+01   5.2684526e+03
 1.0048780e+01   5.2611171e+03
 1.0053460e+01   5.2371354e+03
 1.0058140e+01   5.2400736e+03
 1.0062820e+01   5.2211280e+03
 1.0067500e+01   5.2166595e+03
 1.0072180e+01   5.2026256e+03
 1.0076860e+01   5.1974028e+03
 1.0081540e+01   5.1971151e+03
 1.0086220e+01   5.2078865e+03
 1.0090900e+01   5.1804351e+03
 1.0095580e+01   5.1899918e+03
 1.0100260e+01   5.1963938e+03
 1.0104940e+01   5.1896775e+03
 1.0109620e+01   5.1879117e+03
 1.0114300e+01   5.1809185e+03
 1.0118980e+01   5.1925923e+03
 1.0123660e+01   5.1957543e+03
 1.0128340e+01   5.2053748e+03
 1.0133020e+01   5.1930398e+03
 1.0137700e+01   5.2093185e+03
 1.0142380e+01   5.2145008e+03
 1.0147060e+01   5.2327924e+03
 1.0151740e+01   5.2313567e+03
 1.0156420e+01   5.2470689e+03
 1.0161100e+01   5.2512870e+03
 1.0165780e+01   5.2664978e+03
 1.0170460e+01   5.2893130e+03
 1.0175140e+01   5.3009746e+03
 1.0179820e+01   5.3078640e+03
 1.0184500e+01   5.3216002e+03
 1.0189180e+01   5.3348078e+03
 1.0193860e+01   5.3684345e+03
 1.0198540e+01   5.3814832e+03
 1.0203220e+01   5.3872827e+03
 1.0207900e+01   5.4210025e+03
 1.0212580e+01   5.4276669e+03
 1.0217260e+01   5.4560525e+03
 1.0221940e+01   5.4583269e+03
 1.0226620e+01   5.4766217e+03
 1.0231300e+01   5.4893160e+03
 1.0235980e+01   5.5039912e+03
 1.0240660e+01   5.5115788e+03
 1.0245340e+01   5.5142421e+03
 1.0250020e+01   5.5078144e+03
 1.0254700e+01   5.5497824e+03
 1.0259380e+01   5.5724424e+03
 1.0264060e+01   5.6381804e+03
 1.0268740e+01   5.7620005e+03
 1.0273420e+01   5.9395385e+03
 1.0278100e+01   6.2582281e+03
 1.0282780e+01   6.6615550e+03
 1.0287460e+01   7.1753899e+03
 1.0292140e+01   7.8546911e+03
 1.0296820e+01   8.3354298e+03
 1.0301500e+01   8.5959882e+03
 1.0306180e+01   8.3777368e+03
 1.0310860e+01   8.2170965e+03
 1.0315540e+01   7.6110676e+03
 1.0320220e+01   6.9274455e+03
 1.0324900e+01   6.4396798e+03
 1.0329580e+01   6.0239155e+03
 1.0334260e+01   5.7033381e+03
 1.0338940e+01   5.5039817e+03
 1.0343620e+01   5.4065087e+03
 1.0348300e+01   5.3188110e+03
 1.0352980e+01   5.2879810e+03
 1.0357660e+01   5.2570666e+03
 1.0362340e+01   5.2221466e+03
 1.0367020e+01   5.2383904e+03
 1.0371700e+01   5.2050759e+03
 1.0376380e+01   5.2065137e+03
 1.0381060e+01   5.2319594e+03
 1.0385740e+01   5.2163535e+03
 1.0390420e+01   5.2340127e+03
 1.0395100e+01   5.2118053e+03
 1.0399780e+01   5.2138218e+03
 1.0404460e+01   5.2567224e+03
 1.0409140e+01   5.2299459e+03
 1.0413820e+01   5.2469441e+03
 1.0418500e+01   5.2733774e+03
 1.0423180e+01   5.2472580e+03
 1.0427860e+01   5.2873542e+03
 1.0432540e+01   5.2894072e+03
 1.0437220e+01   5.2804541e+03
 1.0441900e+01   5.3589799e+03
 1.0446580e+01   5.3425562e+03
 1.0451260e+01   5.3442279e+03
 1.0455940e+01   5.6019204e+03
 1.0460620e+01   5.3813325e+03
 1.0465300e+01   5.4357875e+03
 1.0469980e+01   6.6815455e+03
 1.0474660e+01   5.5425914e+03
 1.0479340e+01   8.1059961e+03
 1.0484020e+01   5.8335364e+03
 1.0488700e+01   5.7773472e+03
 1.0493380e+01   6.5677741e+03
 1.0498060e+01   6.0986114e+03
 1.0502740e+01   6.0615955e+03
 1.0507420e+01   6.1826600e+03
 1.0512100e+01   5.9885891e+03
 1.0516780e+01   5.9071954e+03
 1.0521460e+01   5.7476204e+03
 1.0526140e+01   5.6903100e+03
 1.0530820e+01   5.6033120e+03
 1.0535500e+01   5.4630978e+03
 1.0540180e+01   5.4412421e+03
 1.0544860e+01   5.3572524e+03
 1.0549540e+01   5.3094376e+03
 1.0554220e+01   5.3392049e+03
 1.0558900e+01   5.2771124e+03
 1.0563580e+01   5.2821399e+03
 1.0568260e+01   5.2658055e+03
 1.0572940e+01   5.2292688e+03
 1.0577620e+01   5.2421438e+03
 1.0582300e+01   5.1974199e+03
 1.0586980e+01   5.1954120e+03
 1.0591660e+01   5.1843766e+03
 1.0596340e+01   5.1645866e+03
 1.0601020e+01   5.1614005e+03
 1.0605700e+01   5.1494591e+03
 1.0610380e+01   5.1276199e+03
 1.0615060e+01   5.1430223e+03
 1.0619740e+01   5.1119078e+03
 1.0624420e+01   5.1159571e+03
 1.0629100e+01   5.1218606e+03
 1.0633780e+01   5.0916009e+03
 1.0638460e+01   5.0980082e+03
 1.0643140e+01   5.0808307e+03
 1.0647820e+01   5.0671377e+03
 1.0652500e+01   5.0755317e+03
 1.0657180e+01   5.0676784e+03
 1.0661860e+01   5.0556347e+03
 1.0666540e+01   5.0704004e+03
 1.0671220e+01   5.0619240e+03
 1.0675900e+01   5.0551158e+03
 1.0680580e+01   5.0611783e+03
 1.0685260e+01   5.0546274e+03
 1.0689940e+01   5.0634385e+03
 1.0694620e+01   5.0570958e+03
 1.0699300e+01   5.0606087e+03
 1.0703980e+01   5.0602338e+03
 1.0708660e+01   5.0679295e+03
 1.0713340e+01   5.0728229e+03
 1.0718020e+01   5.0757257e+03
 1.0722700e+01   5.0843589e+03
 1.0727380e+01   5.0897405e+03
 1.0732060e+01   5.0877494e+03
 1.0736740e+01   5.1069538e+03
 1.0741420e+01   5.0976739e+03
 1.0746100e+01   5.1237035e+03
 1.0750780e+01   5.1286308e+03
 1.0755460e+01   5.1254350e+03
 1.0760140e+01   5.1254635e+03
 1.0764820e+01   5.1392169e+03
 1.0769500e+01   5.1329721e+03
 1.0774180e+01   5.1310960e+03
 1.0778860e+01   5.1355672e+03
 1.0783540e+01   5.1117215e+03
 1.0788220e+01   5.1230853e+03
 1.0792900e+01   5.1080144e+03
 1.0797580e+01   5.1165345e+03
 1.0802260e+01   5.1116969e+03
 1.0806940e+01   5.1013169e+03
 1.0811620e+01   5.1056460e+03
 1.0816300e+01   5.0954994e+03
 1.0820980e+01   5.0899910e+03
 1.0825660e+01   5.0875505e+03
 1.0830340e+01   5.0804174e+03
 1.0835020e+01   5.0813247e+03
 1.0839700e+01   5.0858624e+03
 1.0844380e+01   5.0646825e+03
 1.0849060e+01   5.0656950e+03
 1.0853740e+01   5.0527133e+03
 1.0858420e+01   5.0383981e+03
 1.0863100e+01   5.0357797e+03
 1.0867780e+01   5.0334694e+03
 1.0872460e+01   5.0201017e+03
 1.0877140e+01   5.0078301e+03
 1.0881820e+01   4.9832739e+03
 1.0886500e+01   4.9859195e+03
 1.0891180e+01   4.9724266e+03
 1.0895860e+01   4.9594509e+03
 1.0900540e+01   4.9447114e+03
 1.0905220e+01   4.9361964e+03
 1.0909900e+01   4.9284435e+03
 1.0914580e+01   4.9106300e+03
 1.0919260e+01   4.8998504e+03
 1.0923940e+01   4.8960416e+03
 1.0928620e+01   4.8886382e+03
 1.0933300e+01   4.8744393e+03
 1.0937980e+01   4.8761358e+03
 1.0942660e+01   4.8616692e+03
 1.0947340e+01   4.8585106e+03
 1.0952020e+01   4.8480069e+03
 1.0956700e+01   4.8267511e+03
 1.0961380e+01   4.8431800e+03
 1.0966060e+01   4.8255916e+03
 1.0970740e+01   4.8319603e+03
 1.0975420e+01   4.8189316e+03
 1.0980100e+01   4.8111804e+03
 1.0984780e+01   4.8116057e+03
 1.0989460e+01   4.8067053e+03
 1.0994140e+01   4.7938725e+03
 1.0998820e+01   4.7996007e+03
 1.1003500e+01   4.7994921e+03
 1.1008180e+01   4.7828320e+03
 1.1012860e+01   4.7958963e+03
 1.1017540e+01   4.7786000e+03
 1.1022220e+01   4.7816832e+03
 1.1026900e+01   4.7922308e+03
 1.1031580e+01   4.7907312e+03
 1.1036260e+01   4.8011112e+03
 1.1040940e+01   4.8001930e+03
 1.1045620e+01   4.8012739e+03
 1.1050300e+01   4.8055727e+03
 1.1054980e+01   4.8087513e+03
 1.1059660e+01   4.8178787e+03
 1.1064340e+01   4.8117804e+03
 1.1069020e+01   4.8210443e+03
 1.1073700e+01   4.8286149e+03
 1.1078380e+01   4.8279560e+03
 1.1083060e+01   4.8482682e+03
 1.1087740e+01   4.8619158e+03
 1.1092420e+01   4.8650719e+03
 1.1097100e+01   4.8815156e+03
 1.1101780e+01   4.8950621e+03
 1.1106460e+01   4.9048771e+03
 1.1111140e+01   4.9352365e+03
 1.1115820e+01   4.9412090e+03
 1.1120500e+01   4.9728047e+03
 1.1125180e+01   4.9565689e+03
 1.1129860e+01   4.9775987e+03
 1.1134540e+01   4.9888485e+03
 1.1139220e+01   4.9773091e+03
 1.1143900e+01   4.9959412e+03
 1.1148580e+01   4.9843431e+03
 1.1153260e+01   4.9867901e+03
 1.1157940e+01   4.9902540e+03
 1.1162620e+01   4.9724962e+03
 1.1167300e+01   4.9741909e+03
 1.1171980e+01   4.9708664e+03
 1.1176660e+01   4.9525693e+03
 1.1181340e+01   4.9539347e+03
 1.1186020e+01   4.9296418e+03
 1.1190700e+01   4.9198846e+03
 1.1195380e+01   4.9499619e+03
 1.1200060e+01   4.8856284e+03
 1.1204740e+01   4.8900744e+03
 1.1209420e+01   5.0498412e+03
 1.1214100e+01   4.8868747e+03
 1.1218780e+01   5.0552280e+03
 1.1223460e+01   4.8885089e+03
 1.1228140e+01   4.8852750e+03
 1.1232820e+01   4.9277709e+03
 1.1237500e+01   4.8461369e+03
 1.1242180e+01   4.8266076e+03
 1.1246860e+01   4.8240561e+03
 1.1251540e+01   4.7896878e+03
 1.1256220e+01   4.7946250e+03
 1.1260900e+01   4.7642173e+03
 1.1265580e+01   4.7540307e+03
 1.1270260e+01   4.7485494e+03
 1.1274940e+01   4.7156415e+03
 1.1279620e+01   4.7182218e+03
 1.1284300e+01   4.7037277e+03
 1.1288980e+01   4.6859286e+03
 1.1293660e+01   4.6989108e+03
 1.1298340e+01   4.6625056e+03
 1.1303020e+01   4.6725448e+03
 1.1307700e+01   4.6636646e+03
 1.1312380e+01   4.6477093e+03
 1.1317060e+01   4.6576901e+03
 1.1321740e+01   4.6322104e+03
 1.1326420e+01   4.6376797e+03
 1.1331100e+01   4.6287414e+03
 1.1335780e+01   4.6095765e+03
 1.1340460e+01   4.6104236e+03
 1.1345140e+01   4.6160042e+03
 1.1349820e+01   4.5938231e+03
 1.1354500e+01   4.5909284e+03
 1.1359180e+01   4.5715785e+03
 1.1363860e+01   4.5752569e+03
 1.1368540e+01   4.5616587e+03
 1.1373220e+01   4.5493211e+03
 1.1377900e+01   4.5629595e+03
 1.1382580e+01   4.5459104e+03
 1.1387260e+01   4.5426828e+03
 1.1391940e+01   4.5453072e+03
 1.1396620e+01   4.5282972e+03
 1.1401300e+01   4.5306518e+03
 1.1405980e+01   4.5302054e+03
 1.1410660e+01   4.5224376e+03
 1.1415340e+01   4.5247635e+03
 1.1420020e+01   4.5162068e+03
 1.1424700e+01   4.5127021e+03
 1.1429380e+01   4.5108983e+03
 1.1434060e+01   4.5098782e+03
 1.1438740e+01   4.5001157e+03
 1.1443420e+01   4.5068111e+03
 1.1448100e+01   4.4945111e+03
 1.1452780e+01   4.5013514e+03
 1.1457460e+01   4.4884852e+03
 1.1462140e+01   4.4935191e+03
 1.1466820e+01   4.4934228e+03
 1.1471500e+01   4.4802613e+03
 1.1476180e+01   4.4946828e+03
 1.1480860e+01   4.4769599e+03
 1.1485540e+01   4.4830408e+03
 1.1490220e+01   4.4769701e+03
 1.1494900e+01   4.4709039e+03
 1.1499580e+01   4.4728278e+03
 1.1504260e+01   4.4710060e+03
 1.1508940e+01   4.4582463e+03
 1.1513620e+01   4.4670742e+03
 1.1518300e+01   4.4603632e+03
 1.1522980e+01   4.4538320e+03
 1.1527660e+01   4.4527269e+03
 1.1532340e+01   4.4367335e+03
 1.1537020e+01   4.4477717e+03
 1.1541700e+01   4.4273577e+03
 1.1546380e+01   4.4279352e+03
 1.1551060e+01   4.4263172e+03
 1.1555740e+01   4.4179662e+03
 1.1560420e+01   4.4310458e+03
 1.1565100e+01   4.4271090e+03
 1.1569780e+01   4.4095227e+03
 1.1574460e+01   4.4183510e+03
 1.1579140e+01   4.4059134e+03
 1.1583820e+01   4.4012079e+03
 1.1588500e+01   4.4021230e+03
 1.1593180e+01   4.4026670e+03
 1.1597860e+01   4.4053633e+03
 1.1602540e+01   4.4026031e+03
 1.1607220e+01   4.3942187e+03
 1.1611900e+01   4.3987428e+03
 1.1616580e+01   4.3910280e+03
 1.1621260e+01   4.3975766e+03
 1.1625940e+01   4.3933613e+03
 1.1630620e+01   4.3912137e+03
 1.1635300e+01   4.3954600e+03
 1.1639980e+01   4.3896969e+03
 1.1644660e+01   4.3767879e+03
 1.1649340e+01   4.3836724e+03
 1.1654020e+01   4.3821745e+03
 1.1658700e+01   4.3747194e+03
 1.1663380e+01   4.3704467e+03
 1.1668060e+01   4.3625945e+03
 1.1672740e+01   4.3679823e+03
 1.1677420e+01   4.3427686e+03
 1.1682100e+01   4.3594108e+03
 1.1686780e+01   4.3491967e+03
 1.1691460e+01   4.3422237e+03
 1.1696140e+01   4.3566023e+03
 1.1700820e+01   4.3489606e+03
 1.1705500e+01   4.3441168e+03
 1.1710180e+01   4.3430080e+03
 1.1714860e+01   4.3341003e+03
 1.1719540e+01   4.3405268e+03
 1.1724220e+01   4.3507085e+03
 1.1728900e+01   4.3312691e+03
 1.1733580e+01   4.3471134e+03
 1.1738260e+01   4.3379982e+03
 1.1742940e+01   4.3422883e+03
 1.1747620e+01   4.3306359e+03
 1.1752300e+01   4.3313823e+03
 1.1756980e+01   4.3369050e+03
 1.1761660e+01   4.3424022e+03
 1.1766340e+01   4.3485877e+03
 1.1771020e+01   4.3390466e+03
 1.1775700e+01   4.3418112e+03
 1.1780380e+01   4.3421943e+03
 1.1785060e+01   4.3404958e+03
 1.1789740e+01   4.3407530e+03
 1.1794420e+01   4.3508967e+03
 1.1799100e+01   4.3450517e+03
 1.1803780e+01   4.3491508e+03
 1.1808460e+01   4.3476504e+03
 1.1813140e+01   4.3478413e+03
 1.1817820e+01   4.3682772e+03
 1.1822500e+01   4.3622988e+03
 1.1827180e+01   4.3727385e+03
 1.1831860e+01   4.3783948e+03
 1.1836540e+01   4.3773560e+03
 1.1841220e+01   4.3739832e+03
 1.1845900e+01   4.3880631e+03
 1.1850580e+01   4.3932010e+03
 1.1855260e+01   4.4099370e+03
 1.1859940e+01   4.4230216e+03
 1.1864620e+01   4.4500507e+03
 1.1869300e+01   4.4754125e+03
 1.1873980e+01   4.5229001e+03
 1.1878660e+01   4.5842582e+03
 1.1883340e+01   4.6680069e+03
 1.1888020e+01   4.7692096e+03
 1.1892700e+01   4.9061981e+03
 1.1897380e+01   5.0120800e+03
 1.1902060e+01   5.1067848e+03
 1.1906740e+01   5.0987834e+03
 1.1911420e+01   5.0416263e+03
 1.1916100e+01   4.9895294e+03
 1.1920780e+01   4.8689787e+03
 1.1925460e+01   4.8004857e+03
 1.1930140e+01   4.6910302e+03
 1.1934820e+01   4.6278998e+03
 1.1939500e+01   4.5898245e+03
 1.1944180e+01   4.5595119e+03
 1.1948860e+01   4.5536724e+03
 1.1953540e+01   4.5458380e+03
 1.1958220e+01   4.5490672e+03
 1.1962900e+01   4.5452317e+03
 1.1967580e+01   4.5611728e+03
 1.1972260e+01   4.5458990e+03
 1.1976940e+01   4.5656945e+03
 1.1981620e+01   4.5652122e+03
 1.1986300e+01   4.5531481e+03
 1.1990980e+01   4.5656145e+03
 1.1995660e+01   4.5577883e+03
 1.2000340e+01   4.5585095e+03
 1.2005020e+01   4.5577505e+03
 1.2009700e+01   4.5493004e+03
 1.2014380e+01   4.5430204e+03
 1.2019060e+01   4.5474981e+03
 1.2023740e+01   4.5175792e+03
 1.2028420e+01   4.5319136e+03
 1.2033100e+01   4.5183403e+03
 1.2037780e+01   4.5075815e+03
 1.2042460e+01   4.4992490e+03
 1.2047140e+01   4.4749220e+03
 1.2051820e+01   4.4810855e+03
 1.2056500e+01   4.4766539e+03
 1.2061180e+01   4.4729378e+03
 1.2065860e+01   4.4597257e+03
 1.2070540e+01   4.4482360e+03
 1.2075220e+01   4.4382090e+03
 1.2079900e+01   4.4377830e+03
 1.2084580e+01   4.4309454e+03
 1.2089260e+01   4.4282601e+03
 1.2093940e+01   4.4160591e+03
 1.2098620e+01   4.4213252e+03
 1.2103300e+01   4.4083077e+03
 1.2107980e+01   4.3922851e+03
 1.2112660e+01   4.3940622e+03
 1.2117340e+01   4.3648708e+03
 1.2122020e+01   4.3661667e+03
 1.2126700e+01   4.3540843e+03
 1.2131380e+01   4.3341387e+03
 1.2136060e+01   4.3244525e+03
 1.2140740e+01   4.3149502e+03
 1.2145420e+01   4.2983863e+03
 1.2150100e+01   4.2827788e+03
 1.2154780e+01   4.2635553e+03
 1.2159460e+01   4.2553136e+03
 1.2164140e+01   4.2408169e+03
 1.2168820e+01   4.2218596e+03
 1.2173500e+01   4.2209605e+03
 1.2178180e+01   4.1990949e+03
 1.2182860e+01   4.1882902e+03
 1.2187540e+01   4.1826649e+03
 1.2192220e+01   4.1737817e+03
 1.2196900e+01   4.1616255e+03
 1.2201580e+01   4.1534921e+03
 1.2206260e+01   4.1394043e+03
 1.2210940e+01   4.1530678e+03
 1.2215620e+01   4.1334662e+03
 1.2220300e+01   4.1291705e+03
 1.2224980e+01   4.1290394e+03
 1.2229660e+01   4.1179750e+03
 1.2234340e+01   4.1179988e+03
 1.2239020e+01   4.1046673e+03
 1.2243700e+01   4.1090523e+03
 1.2248380e+01   4.1039180e+03
 1.2253060e+01   4.1120007e+03
 1.2257740e+01   4.1034269e+03
 1.2262420e+01   4.1081644e+03
 1.2267100e+01   4.0990240e+03
 1.2271780e+01   4.1038717e+03
 1.2276460e+01   4.0946315e+03
 1.2281140e+01   4.0870580e+03
 1.2285820e+01   4.0897755e+03
 1.2290500e+01   4.0812205e+03
 1.2295180e+01   4.0870152e+03
 1.2299860e+01   4.0898786e+03
 1.2304540e+01   4.0886415e+03
 1.2309220e+01   4.1024614e+03
 1.2313900e+01   4.0961392e+03
 1.2318580e+01   4.0853519e+03
 1.2323260e+01   4.0922035e+03
 1.2327940e+01   4.0860084e+03
 1.2332620e+01   4.0957826e+03
 1.2337300e+01   4.0840430e+03
 1.2341980e+01   4.0992922e+03
 1.2346660e+01   4.0951914e+03
 1.2351340e+01   4.0897965e+03
 1.2356020e+01   4.1055114e+03
 1.2360700e+01   4.1011600e+03
 1.2365380e+01   4.1085009e+03
 1.2370060e+01   4.1101488e+03
 1.2374740e+01   4.1153441e+03
 1.2379420e+01   4.1169139e+03
 1.2384100e+01   4.1287279e+03
 1.2388780e+01   4.1195472e+03
 1.2393460e+01   4.1365083e+03
 1.2398140e+01   4.1299119e+03
 1.2402820e+01   4.1239000e+03
 1.2407500e+01   4.1396396e+03
 1.2412180e+01   4.1304115e+03
 1.2416860e+01   4.1372666e+03
 1.2421540e+01   4.1396029e+03
 1.2426220e+01   4.1431928e+03
 1.2430900e+01   4.1463288e+03
 1.2435580e+01   4.1407386e+03
 1.2440260e+01   4.1518405e+03
 1.2444940e+01   4.1404396e+03
 1.2449620e+01   4.1462481e+03
 1.2454300e+01   4.1439567e+03
 1.2458980e+01   4.1475706e+03
 1.2463660e+01   4.1349838e+03
 1.2468340e+01   4.1481049e+03
 1.2473020e+01   4.1555956e+03
 1.2477700e+01   4.1559456e+03
 1.2482380e+01   4.1513780e+03
 1.2487060e+01   4.1450649e+03
 1.2491740e+01   4.1487587e+03
 1.2496420e+01   4.1477682e+03
 1.2501100e+01   4.1389650e+03
 1.2505780e+01   4.1420055e+03
 1.2510460e+01   4.1371663e+03
 1.2515140e+01   4.1343329e+03
 1.2519820e+01   4.1293829e+03
 1.2524500e+01   4.1295638e+03
 1.2529180e+01   4.1292437e+03
 1.2533860e+01   4.1216509e+03
 1.2538540e+01   4.1228295e+03
 1.2543220e+01   4.1358644e+03
 1.2547900e+01   4.1419848e+03
 1.2552580e+01   4.1390621e+03
 1.2557260e+01   4.1588386e+03
 1.2561940e+01   4.1721689e+03
 1.2566620e+01   4.1499390e+03
 1.2571300e+01   4.1933853e+03
 1.2575980e+01   4.1640955e+03
 1.2580660e+01   4.1474584e+03
 1.2585340e+01   4.1579308e+03
 1.2590020e+01   4.1513377e+03
 1.2594700e+01   4.1498854e+03
 1.2599380e+01   4.1566357e+03
 1.2604060e+01   4.1573894e+03
 1.2608740e+01   4.1632281e+03
 1.2613420e+01   4.1700740e+03
 1.2618100e+01   4.1704497e+03
 1.2622780e+01   4.1802446e+03
 1.2627460e+01   4.1807048e+03
 1.2632140e+01   4.1922767e+03
 1.2636820e+01   4.1923606e+03
 1.2641500e+01   4.1956053e+03
 1.2646180e+01   4.2040174e+03
 1.2650860e+01   4.2101518e+03
 1.2655540e+01   4.2070634e+03
 1.2660220e+01   4.2175010e+03
 1.2664900e+01   4.2154654e+03
 1.2669580e+01   4.2238461e+03
 1.2674260e+01   4.2241111e+03
 1.2678940e+01   4.2296530e+03
 1.2683620e+01   4.2280394e+03
 1.2688300e+01   4.2305760e+03
 1.2692980e+01   4.2397646e+03
 1.2697660e+01   4.2321216e+03
