MA2b-00007.tif Azm= 0.00
2-Theta Angle (Degrees)
Intensity
       2500
 1.0023400e+00   7.9821882e+03
 1.0070200e+00   8.0179035e+03
 1.0117000e+00   7.9188032e+03
 1.0163800e+00   7.9445485e+03
 1.0210600e+00   7.8675827e+03
 1.0257400e+00   7.8770602e+03
 1.0304199e+00   7.8174526e+03
 1.0351000e+00   7.8063033e+03
 1.0397800e+00   7.7926928e+03
 1.0444601e+00   7.7468444e+03
 1.0491400e+00   7.7209655e+03
 1.0538200e+00   7.7202603e+03
 1.0585001e+00   7.6693057e+03
 1.0631800e+00   7.6823684e+03
 1.0678600e+00   7.6849391e+03
 1.0725400e+00   7.6151977e+03
 1.0772200e+00   7.6120950e+03
 1.0819000e+00   7.5916542e+03
 1.0865800e+00   7.5964770e+03
 1.0912600e+00   7.5543199e+03
 1.0959400e+00   7.5417793e+03
 1.1006200e+00   7.4956769e+03
 1.1052999e+00   7.4857243e+03
 1.1099800e+00   7.4651728e+03
 1.1146600e+00   7.4230453e+03
 1.1193399e+00   7.4348334e+03
 1.1240200e+00   7.4186422e+03
 1.1287000e+00   7.4028093e+03
 1.1333801e+00   7.3827830e+03
 1.1380600e+00   7.3627395e+03
 1.1427400e+00   7.3501689e+03
 1.1474200e+00   7.3099787e+03
 1.1521000e+00   7.3580704e+03
 1.1567800e+00   7.3296084e+03
 1.1614600e+00   7.2976755e+03
 1.1661400e+00   7.3009283e+03
 1.1708200e+00   7.2943731e+03
 1.1755000e+00   7.3169465e+03
 1.1801800e+00   7.2314729e+03
 1.1848600e+00   7.2955911e+03
 1.1895400e+00   7.2552584e+03
 1.1942199e+00   7.3044255e+03
 1.1989000e+00   7.2536472e+03
 1.2035800e+00   7.2374968e+03
 1.2082601e+00   7.2513241e+03
 1.2129400e+00   7.2126832e+03
 1.2176200e+00   7.1848591e+03
 1.2223001e+00   7.2213043e+03
 1.2269800e+00   7.2149644e+03
 1.2316600e+00   7.1943834e+03
 1.2363400e+00   7.1768393e+03
 1.2410200e+00   7.1967458e+03
 1.2457000e+00   7.1814865e+03
 1.2503800e+00   7.1678777e+03
 1.2550600e+00   7.1816916e+03
 1.2597400e+00   7.1813375e+03
 1.2644200e+00   7.1772066e+03
 1.2691000e+00   7.1819229e+03
 1.2737800e+00   7.1542663e+03
 1.2784600e+00   7.1904768e+03
 1.2831399e+00   7.1692646e+03
 1.2878200e+00   7.1834914e+03
 1.2925000e+00   7.1509587e+03
 1.2971801e+00   7.1647461e+03
 1.3018600e+00   7.1689955e+03
 1.3065400e+00   7.1702339e+03
 1.3112200e+00   7.1583965e+03
 1.3159000e+00   7.1907793e+03
 1.3205800e+00   7.1863024e+03
 1.3252600e+00   7.1875262e+03
 1.3299400e+00   7.1962450e+03
 1.3346200e+00   7.2069928e+03
 1.3393000e+00   7.2241158e+03
 1.3439800e+00   7.2309676e+03
 1.3486600e+00   7.2081579e+03
 1.3533400e+00   7.1827454e+03
 1.3580199e+00   7.2151175e+03
 1.3627000e+00   7.2406650e+03
 1.3673800e+00   7.2589015e+03
 1.3720599e+00   7.2613827e+03
 1.3767400e+00   7.2735958e+03
 1.3814200e+00   7.2708590e+03
 1.3861001e+00   7.3065103e+03
 1.3907800e+00   7.3044789e+03
 1.3954600e+00   7.3202397e+03
 1.4001400e+00   7.3100014e+03
 1.4048200e+00   7.3404412e+03
 1.4095000e+00   7.3428950e+03
 1.4141800e+00   7.3621299e+03
 1.4188600e+00   7.3878170e+03
 1.4235400e+00   7.3949156e+03
 1.4282200e+00   7.4111022e+03
 1.4329000e+00   7.4443298e+03
 1.4375800e+00   7.4473933e+03
 1.4422600e+00   7.4739489e+03
 1.4469399e+00   7.5056356e+03
 1.4516200e+00   7.5467801e+03
 1.4563000e+00   7.5250989e+03
 1.4609801e+00   7.5857556e+03
 1.4656600e+00   7.6364838e+03
 1.4703400e+00   7.6260899e+03
 1.4750201e+00   7.6788882e+03
 1.4797000e+00   7.6828607e+03
 1.4843800e+00   7.6932267e+03
 1.4890600e+00   7.7248236e+03
 1.4937400e+00   7.7299623e+03
 1.4984200e+00   7.7509934e+03
 1.5031000e+00   7.7795167e+03
 1.5077800e+00   7.7883272e+03
 1.5124600e+00   7.8134816e+03
 1.5171400e+00   7.8020562e+03
 1.5218199e+00   7.8419852e+03
 1.5265000e+00   7.8202881e+03
 1.5311800e+00   7.7922371e+03
 1.5358599e+00   7.8168157e+03
 1.5405400e+00   7.8186118e+03
 1.5452200e+00   7.8147128e+03
 1.5499001e+00   7.8202685e+03
 1.5545800e+00   7.7992070e+03
 1.5592600e+00   7.7788282e+03
 1.5639400e+00   7.7698754e+03
 1.5686200e+00   7.7529725e+03
 1.5733000e+00   7.7689267e+03
 1.5779800e+00   7.7553533e+03
 1.5826600e+00   7.7640456e+03
 1.5873400e+00   7.7556640e+03
 1.5920200e+00   7.7354945e+03
 1.5967000e+00   7.7461561e+03
 1.6013800e+00   7.7333011e+03
 1.6060600e+00   7.7315011e+03
 1.6107399e+00   7.7438240e+03
 1.6154200e+00   7.7404370e+03
 1.6201000e+00   7.7472378e+03
 1.6247801e+00   7.7566741e+03
 1.6294600e+00   7.7322069e+03
 1.6341400e+00   7.7299651e+03
 1.6388201e+00   7.7560028e+03
 1.6435000e+00   7.7290672e+03
 1.6481800e+00   7.7455272e+03
 1.6528600e+00   7.7432731e+03
 1.6575400e+00   7.7223838e+03
 1.6622200e+00   7.7394696e+03
 1.6669000e+00   7.7413829e+03
 1.6715800e+00   7.7564846e+03
 1.6762600e+00   7.7475789e+03
 1.6809400e+00   7.7575681e+03
 1.6856200e+00   7.7640567e+03
 1.6903000e+00   7.7367307e+03
 1.6949800e+00   7.7657149e+03
 1.6996599e+00   7.7863422e+03
 1.7043400e+00   7.7700122e+03
 1.7090200e+00   7.7811308e+03
 1.7137001e+00   7.7532509e+03
 1.7183800e+00   7.8021425e+03
 1.7230600e+00   7.7945504e+03
 1.7277400e+00   7.7836495e+03
 1.7324200e+00   7.8076215e+03
 1.7371000e+00   7.7891775e+03
 1.7417800e+00   7.8033544e+03
 1.7464600e+00   7.7910436e+03
 1.7511400e+00   7.8056584e+03
 1.7558200e+00   7.8339773e+03
 1.7605000e+00   7.8306263e+03
 1.7651800e+00   7.8354154e+03
 1.7698600e+00   7.8557513e+03
 1.7745399e+00   7.8490925e+03
 1.7792200e+00   7.8964812e+03
 1.7839000e+00   7.8776348e+03
 1.7885799e+00   7.8893331e+03
 1.7932600e+00   7.8945796e+03
 1.7979400e+00   7.9295938e+03
 1.8026201e+00   7.9563204e+03
 1.8073000e+00   7.9210010e+03
 1.8119800e+00   7.9687006e+03
 1.8166600e+00   7.9949612e+03
 1.8213400e+00   8.0017706e+03
 1.8260200e+00   7.9956470e+03
 1.8307000e+00   8.0407491e+03
 1.8353800e+00   8.0511196e+03
 1.8400600e+00   8.0704544e+03
 1.8447400e+00   8.0823704e+03
 1.8494200e+00   8.0901801e+03
 1.8541000e+00   8.1162035e+03
 1.8587800e+00   8.1121115e+03
 1.8634599e+00   8.1569467e+03
 1.8681400e+00   8.1703857e+03
 1.8728200e+00   8.1942643e+03
 1.8775001e+00   8.2318495e+03
 1.8821800e+00   8.2439819e+03
 1.8868600e+00   8.2800115e+03
 1.8915401e+00   8.2888697e+03
 1.8962200e+00   8.3174317e+03
 1.9009000e+00   8.3214498e+03
 1.9055800e+00   8.3520914e+03
 1.9102600e+00   8.3750769e+03
 1.9149400e+00   8.3991082e+03
 1.9196200e+00   8.4226811e+03
 1.9243000e+00   8.4750338e+03
 1.9289800e+00   8.4781450e+03
 1.9336600e+00   8.5028509e+03
 1.9383399e+00   8.5319639e+03
 1.9430200e+00   8.5525997e+03
 1.9477000e+00   8.5980096e+03
 1.9523799e+00   8.6076871e+03
 1.9570600e+00   8.6300565e+03
 1.9617400e+00   8.6568527e+03
 1.9664201e+00   8.6869788e+03
 1.9711000e+00   8.6982632e+03
 1.9757800e+00   8.7545126e+03
 1.9804600e+00   8.7673386e+03
 1.9851400e+00   8.7781320e+03
 1.9898200e+00   8.8207547e+03
 1.9945000e+00   8.8524926e+03
 1.9991800e+00   8.8584488e+03
 2.0038600e+00   8.8633961e+03
 2.0085399e+00   8.9242232e+03
 2.0132201e+00   8.9750756e+03
 2.0179000e+00   8.9694408e+03
 2.0225799e+00   8.9900876e+03
 2.0272601e+00   9.0349903e+03
 2.0319400e+00   9.0782845e+03
 2.0366199e+00   9.1142012e+03
 2.0413001e+00   9.1565297e+03
 2.0459800e+00   9.1885137e+03
 2.0506599e+00   9.2301922e+03
 2.0553401e+00   9.2768837e+03
 2.0600200e+00   9.3158840e+03
 2.0646999e+00   9.3729992e+03
 2.0693800e+00   9.4558451e+03
 2.0740600e+00   9.5295982e+03
 2.0787399e+00   9.6261739e+03
 2.0834200e+00   9.7930412e+03
 2.0881000e+00   9.9551260e+03
 2.0927801e+00   1.0245366e+04
 2.0974600e+00   1.0609313e+04
 2.1021399e+00   1.1111542e+04
 2.1068201e+00   1.1783539e+04
 2.1115000e+00   1.2919579e+04
 2.1161799e+00   1.4440721e+04
 2.1208601e+00   1.6615200e+04
 2.1255400e+00   1.9372529e+04
 2.1302199e+00   2.2745299e+04
 2.1349001e+00   2.7084240e+04
 2.1395800e+00   2.9551500e+04
 2.1442599e+00   3.1921350e+04
 2.1489401e+00   3.2992945e+04
 2.1536200e+00   3.2582925e+04
 2.1582999e+00   3.1040957e+04
 2.1629801e+00   2.8610943e+04
 2.1676600e+00   2.5894173e+04
 2.1723399e+00   2.3209331e+04
 2.1770201e+00   2.0841847e+04
 2.1817000e+00   1.8808297e+04
 2.1863799e+00   1.7213496e+04
 2.1910601e+00   1.5854014e+04
 2.1957400e+00   1.4831641e+04
 2.2004199e+00   1.3909340e+04
 2.2051001e+00   1.3267460e+04
 2.2097800e+00   1.2708225e+04
 2.2144599e+00   1.2336161e+04
 2.2191401e+00   1.2023470e+04
 2.2238200e+00   1.1818474e+04
 2.2284999e+00   1.1639825e+04
 2.2331800e+00   1.1530119e+04
 2.2378600e+00   1.1404341e+04
 2.2425399e+00   1.1285620e+04
 2.2472200e+00   1.1161785e+04
 2.2519000e+00   1.1056466e+04
 2.2565801e+00   1.0928504e+04
 2.2612600e+00   1.0811958e+04
 2.2659400e+00   1.0715385e+04
 2.2706201e+00   1.0614570e+04
 2.2753000e+00   1.0579591e+04
 2.2799799e+00   1.0521986e+04
 2.2846601e+00   1.0512411e+04
 2.2893400e+00   1.0500657e+04
 2.2940199e+00   1.0503001e+04
 2.2987001e+00   1.0490904e+04
 2.3033800e+00   1.0512165e+04
 2.3080599e+00   1.0517190e+04
 2.3127401e+00   1.0536939e+04
 2.3174200e+00   1.0577782e+04
 2.3220999e+00   1.0591068e+04
 2.3267801e+00   1.0607434e+04
 2.3314600e+00   1.0642219e+04
 2.3361399e+00   1.0666252e+04
 2.3408201e+00   1.0682510e+04
 2.3455000e+00   1.0725915e+04
 2.3501799e+00   1.0737541e+04
 2.3548601e+00   1.0779574e+04
 2.3595400e+00   1.0789754e+04
 2.3642199e+00   1.0824604e+04
 2.3689001e+00   1.0858661e+04
 2.3735800e+00   1.0885006e+04
 2.3782599e+00   1.0911756e+04
 2.3829401e+00   1.0955677e+04
 2.3876200e+00   1.0979781e+04
 2.3922999e+00   1.1010097e+04
 2.3969800e+00   1.1059994e+04
 2.4016600e+00   1.1083600e+04
 2.4063399e+00   1.1103939e+04
 2.4110200e+00   1.1163511e+04
 2.4157000e+00   1.1200907e+04
 2.4203801e+00   1.1229910e+04
 2.4250600e+00   1.1263033e+04
 2.4297400e+00   1.1313752e+04
 2.4344201e+00   1.1349685e+04
 2.4391000e+00   1.1381073e+04
 2.4437799e+00   1.1426032e+04
 2.4484601e+00   1.1439720e+04
 2.4531400e+00   1.1484111e+04
 2.4578199e+00   1.1509663e+04
 2.4625001e+00   1.1568001e+04
 2.4671800e+00   1.1587028e+04
 2.4718599e+00   1.1648176e+04
 2.4765401e+00   1.1675942e+04
 2.4812200e+00   1.1695996e+04
 2.4858999e+00   1.1733090e+04
 2.4905801e+00   1.1769907e+04
 2.4952600e+00   1.1801964e+04
 2.4999399e+00   1.1857931e+04
 2.5046201e+00   1.1884460e+04
 2.5093000e+00   1.1910482e+04
 2.5139799e+00   1.1951614e+04
 2.5186601e+00   1.1994777e+04
 2.5233400e+00   1.2039403e+04
 2.5280199e+00   1.2074067e+04
 2.5327001e+00   1.2089653e+04
 2.5373800e+00   1.2140640e+04
 2.5420599e+00   1.2171620e+04
 2.5467401e+00   1.2209900e+04
 2.5514200e+00   1.2241914e+04
 2.5560999e+00   1.2260088e+04
 2.5607800e+00   1.2308237e+04
 2.5654600e+00   1.2329705e+04
 2.5701399e+00   1.2347415e+04
 2.5748200e+00   1.2389765e+04
 2.5795000e+00   1.2446894e+04
 2.5841801e+00   1.2463252e+04
 2.5888600e+00   1.2500333e+04
 2.5935400e+00   1.2514763e+04
 2.5982201e+00   1.2558297e+04
 2.6029000e+00   1.2562313e+04
 2.6075799e+00   1.2578751e+04
 2.6122601e+00   1.2608985e+04
 2.6169400e+00   1.2619905e+04
 2.6216199e+00   1.2644736e+04
 2.6263001e+00   1.2681067e+04
 2.6309800e+00   1.2678086e+04
 2.6356599e+00   1.2707453e+04
 2.6403401e+00   1.2728166e+04
 2.6450200e+00   1.2750274e+04
 2.6496999e+00   1.2767125e+04
 2.6543801e+00   1.2788869e+04
 2.6590600e+00   1.2810209e+04
 2.6637399e+00   1.2821971e+04
 2.6684201e+00   1.2841100e+04
 2.6731000e+00   1.2837538e+04
 2.6777799e+00   1.2851725e+04
 2.6824601e+00   1.2873596e+04
 2.6871400e+00   1.2883690e+04
 2.6918199e+00   1.2880943e+04
 2.6965001e+00   1.2870176e+04
 2.7011800e+00   1.2887762e+04
 2.7058599e+00   1.2894295e+04
 2.7105401e+00   1.2884243e+04
 2.7152200e+00   1.2906245e+04
 2.7198999e+00   1.2910130e+04
 2.7245800e+00   1.2881091e+04
 2.7292600e+00   1.2930124e+04
 2.7339399e+00   1.2923265e+04
 2.7386200e+00   1.2906545e+04
 2.7433000e+00   1.2926421e+04
 2.7479801e+00   1.2885776e+04
 2.7526600e+00   1.2911185e+04
 2.7573400e+00   1.2897375e+04
 2.7620201e+00   1.2896262e+04
 2.7667000e+00   1.2881052e+04
 2.7713799e+00   1.2868900e+04
 2.7760601e+00   1.2885428e+04
 2.7807400e+00   1.2861287e+04
 2.7854199e+00   1.2863731e+04
 2.7901001e+00   1.2862013e+04
 2.7947800e+00   1.2833680e+04
 2.7994599e+00   1.2820942e+04
 2.8041401e+00   1.2831040e+04
 2.8088200e+00   1.2815541e+04
 2.8134999e+00   1.2793278e+04
 2.8181801e+00   1.2796062e+04
 2.8228600e+00   1.2771020e+04
 2.8275399e+00   1.2762099e+04
 2.8322201e+00   1.2741606e+04
 2.8369000e+00   1.2719170e+04
 2.8415799e+00   1.2730060e+04
 2.8462601e+00   1.2700958e+04
 2.8509400e+00   1.2662306e+04
 2.8556199e+00   1.2672545e+04
 2.8603001e+00   1.2638202e+04
 2.8649800e+00   1.2625914e+04
 2.8696599e+00   1.2602262e+04
 2.8743401e+00   1.2601379e+04
 2.8790200e+00   1.2586771e+04
 2.8836999e+00   1.2550901e+04
 2.8883801e+00   1.2530350e+04
 2.8930600e+00   1.2521624e+04
 2.8977399e+00   1.2499556e+04
 2.9024200e+00   1.2479552e+04
 2.9071000e+00   1.2476673e+04
 2.9117801e+00   1.2444410e+04
 2.9164600e+00   1.2421562e+04
 2.9211400e+00   1.2430084e+04
 2.9258201e+00   1.2386583e+04
 2.9305000e+00   1.2358010e+04
 2.9351799e+00   1.2369336e+04
 2.9398601e+00   1.2327940e+04
 2.9445400e+00   1.2351311e+04
 2.9492199e+00   1.2307016e+04
 2.9539001e+00   1.2304276e+04
 2.9585800e+00   1.2279901e+04
 2.9632599e+00   1.2244870e+04
 2.9679401e+00   1.2227621e+04
 2.9726200e+00   1.2194842e+04
 2.9772999e+00   1.2164376e+04
 2.9819801e+00   1.2170301e+04
 2.9866600e+00   1.2107983e+04
 2.9913399e+00   1.2097348e+04
 2.9960201e+00   1.2080019e+04
 3.0007000e+00   1.2033703e+04
 3.0053799e+00   1.2016128e+04
 3.0100601e+00   1.1985854e+04
 3.0147400e+00   1.1969536e+04
 3.0194199e+00   1.1961010e+04
 3.0241001e+00   1.1907914e+04
 3.0287800e+00   1.1907479e+04
 3.0334599e+00   1.1877452e+04
 3.0381401e+00   1.1836308e+04
 3.0428200e+00   1.1818817e+04
 3.0474999e+00   1.1783557e+04
 3.0521801e+00   1.1731131e+04
 3.0568600e+00   1.1718176e+04
 3.0615399e+00   1.1677220e+04
 3.0662200e+00   1.1661919e+04
 3.0709000e+00   1.1640942e+04
 3.0755799e+00   1.1624513e+04
 3.0802600e+00   1.1610974e+04
 3.0849400e+00   1.1579137e+04
 3.0896201e+00   1.1534663e+04
 3.0943000e+00   1.1521721e+04
 3.0989799e+00   1.1490646e+04
 3.1036601e+00   1.1468579e+04
 3.1083400e+00   1.1468699e+04
 3.1130199e+00   1.1427009e+04
 3.1177001e+00   1.1425465e+04
 3.1223800e+00   1.1410882e+04
 3.1270599e+00   1.1347105e+04
 3.1317401e+00   1.1353464e+04
 3.1364200e+00   1.1313128e+04
 3.1410999e+00   1.1303155e+04
 3.1457801e+00   1.1283347e+04
 3.1504600e+00   1.1277724e+04
 3.1551399e+00   1.1241594e+04
 3.1598201e+00   1.1238109e+04
 3.1645000e+00   1.1212856e+04
 3.1691799e+00   1.1218341e+04
 3.1738601e+00   1.1181845e+04
 3.1785400e+00   1.1177573e+04
 3.1832199e+00   1.1141070e+04
 3.1879001e+00   1.1163017e+04
 3.1925800e+00   1.1142469e+04
 3.1972599e+00   1.1119336e+04
 3.2019401e+00   1.1101331e+04
 3.2066200e+00   1.1096264e+04
 3.2112999e+00   1.1105170e+04
 3.2159801e+00   1.1063515e+04
 3.2206600e+00   1.1029665e+04
 3.2253399e+00   1.1017963e+04
 3.2300200e+00   1.0993007e+04
 3.2347000e+00   1.0979239e+04
 3.2393799e+00   1.0983383e+04
 3.2440600e+00   1.0955021e+04
 3.2487400e+00   1.0952372e+04
 3.2534201e+00   1.0943236e+04
 3.2581000e+00   1.0954309e+04
 3.2627800e+00   1.0943561e+04
 3.2674601e+00   1.0908981e+04
 3.2721400e+00   1.0912414e+04
 3.2768199e+00   1.0885464e+04
 3.2815001e+00   1.0867761e+04
 3.2861800e+00   1.0874898e+04
 3.2908599e+00   1.0846699e+04
 3.2955401e+00   1.0863623e+04
 3.3002200e+00   1.0845783e+04
 3.3048999e+00   1.0838419e+04
 3.3095801e+00   1.0848817e+04
 3.3142600e+00   1.0862305e+04
 3.3189399e+00   1.0816682e+04
 3.3236201e+00   1.0860383e+04
 3.3283000e+00   1.0831963e+04
 3.3329799e+00   1.0817408e+04
 3.3376601e+00   1.0830799e+04
 3.3423400e+00   1.0823300e+04
 3.3470199e+00   1.0817408e+04
 3.3517001e+00   1.0827210e+04
 3.3563800e+00   1.0830050e+04
 3.3610599e+00   1.0811966e+04
 3.3657401e+00   1.0831435e+04
 3.3704200e+00   1.0807131e+04
 3.3750999e+00   1.0812916e+04
 3.3797801e+00   1.0804638e+04
 3.3844600e+00   1.0785925e+04
 3.3891399e+00   1.0800614e+04
 3.3938200e+00   1.0788725e+04
 3.3985000e+00   1.0805303e+04
 3.4031799e+00   1.0799553e+04
 3.4078600e+00   1.0782408e+04
 3.4125400e+00   1.0822917e+04
 3.4172201e+00   1.0811070e+04
 3.4219000e+00   1.0790920e+04
 3.4265800e+00   1.0833783e+04
 3.4312601e+00   1.0825134e+04
 3.4359400e+00   1.0819885e+04
 3.4406199e+00   1.0841822e+04
 3.4453001e+00   1.0809089e+04
 3.4499800e+00   1.0846460e+04
 3.4546599e+00   1.0852404e+04
 3.4593401e+00   1.0830698e+04
 3.4640200e+00   1.0849014e+04
 3.4686999e+00   1.0821651e+04
 3.4733801e+00   1.0829418e+04
 3.4780600e+00   1.0845542e+04
 3.4827399e+00   1.0813382e+04
 3.4874201e+00   1.0836117e+04
 3.4921000e+00   1.0833078e+04
 3.4967799e+00   1.0812919e+04
 3.5014601e+00   1.0812314e+04
 3.5061400e+00   1.0822804e+04
 3.5108199e+00   1.0789279e+04
 3.5155001e+00   1.0835610e+04
 3.5201800e+00   1.0809064e+04
 3.5248599e+00   1.0811056e+04
 3.5295401e+00   1.0827522e+04
 3.5342200e+00   1.0814256e+04
 3.5388999e+00   1.0826042e+04
 3.5435801e+00   1.0848743e+04
 3.5482600e+00   1.0778308e+04
 3.5529399e+00   1.0846964e+04
 3.5576200e+00   1.0791328e+04
 3.5623000e+00   1.0800514e+04
 3.5669799e+00   1.0822422e+04
 3.5716600e+00   1.0799706e+04
 3.5763400e+00   1.0804326e+04
 3.5810201e+00   1.0837715e+04
 3.5857000e+00   1.0800788e+04
 3.5903800e+00   1.0823267e+04
 3.5950601e+00   1.0837140e+04
 3.5997400e+00   1.0779558e+04
 3.6044199e+00   1.0840494e+04
 3.6091001e+00   1.0806218e+04
 3.6137800e+00   1.0770741e+04
 3.6184599e+00   1.0844631e+04
 3.6231401e+00   1.0788921e+04
 3.6278200e+00   1.0781224e+04
 3.6324999e+00   1.0810985e+04
 3.6371801e+00   1.0728217e+04
 3.6418600e+00   1.0796326e+04
 3.6465399e+00   1.0775623e+04
 3.6512201e+00   1.0699449e+04
 3.6559000e+00   1.0809043e+04
 3.6605799e+00   1.0735223e+04
 3.6652601e+00   1.0725234e+04
 3.6699400e+00   1.0787546e+04
 3.6746199e+00   1.0635889e+04
 3.6793001e+00   1.0643129e+04
 3.6839800e+00   1.0699808e+04
 3.6886599e+00   1.0587002e+04
 3.6933401e+00   1.0652031e+04
 3.6980200e+00   1.0568534e+04
 3.7026999e+00   1.0464198e+04
 3.7073801e+00   1.0527081e+04
 3.7120600e+00   1.0451841e+04
 3.7167399e+00   1.0435527e+04
 3.7214200e+00   1.0477817e+04
 3.7261000e+00   1.0348344e+04
 3.7307799e+00   1.0387808e+04
 3.7354600e+00   1.0329547e+04
 3.7401400e+00   1.0246045e+04
 3.7448201e+00   1.0263247e+04
 3.7495000e+00   1.0249780e+04
 3.7541800e+00   1.0099992e+04
 3.7588601e+00   1.0163023e+04
 3.7635400e+00   1.0016610e+04
 3.7682199e+00   1.0059118e+04
 3.7729001e+00   9.9801026e+03
 3.7775800e+00   9.9314598e+03
 3.7822599e+00   9.8583019e+03
 3.7869401e+00   9.8952459e+03
 3.7916200e+00   9.6921787e+03
 3.7962999e+00   9.9083934e+03
 3.8009801e+00   9.7227236e+03
 3.8056600e+00   9.7258993e+03
 3.8103399e+00   9.7580566e+03
 3.8150201e+00   9.6937406e+03
 3.8197000e+00   9.6472313e+03
 3.8243799e+00   9.7290603e+03
 3.8290601e+00   9.6011841e+03
 3.8337400e+00   9.6216264e+03
 3.8384199e+00   9.5715424e+03
 3.8431001e+00   9.4487000e+03
 3.8477800e+00   9.6154259e+03
 3.8524599e+00   9.4877432e+03
 3.8571401e+00   9.4617626e+03
 3.8618200e+00   9.4755852e+03
 3.8664999e+00   9.3579205e+03
 3.8711801e+00   9.4553538e+03
 3.8758600e+00   9.3792529e+03
 3.8805399e+00   9.2810377e+03
 3.8852201e+00   9.4010880e+03
 3.8899000e+00   9.2136370e+03
 3.8945799e+00   9.1633336e+03
 3.8992600e+00   9.1856800e+03
 3.9039400e+00   9.1423793e+03
 3.9086201e+00   9.0555046e+03
 3.9133000e+00   9.1357019e+03
 3.9179800e+00   8.9880373e+03
 3.9226601e+00   9.0107025e+03
 3.9273400e+00   9.0491492e+03
 3.9320199e+00   8.9267370e+03
 3.9367001e+00   8.9487782e+03
 3.9413800e+00   8.9176138e+03
 3.9460599e+00   8.8522138e+03
 3.9507401e+00   8.9089196e+03
 3.9554200e+00   8.8636823e+03
 3.9600999e+00   8.7951867e+03
 3.9647801e+00   8.7984696e+03
 3.9694600e+00   8.7367624e+03
 3.9741399e+00   8.7395158e+03
 3.9788201e+00   8.7400514e+03
 3.9835000e+00   8.7116566e+03
 3.9881799e+00   8.6861006e+03
 3.9928601e+00   8.6448159e+03
 3.9975400e+00   8.6136749e+03
 4.0022202e+00   8.6627236e+03
 4.0068998e+00   8.5355481e+03
 4.0115800e+00   8.6127594e+03
 4.0162601e+00   8.5750025e+03
 4.0209398e+00   8.4757374e+03
 4.0256200e+00   8.4971928e+03
 4.0303001e+00   8.4822915e+03
 4.0349798e+00   8.4273018e+03
 4.0396600e+00   8.5037927e+03
 4.0443401e+00   8.3760140e+03
 4.0490198e+00   8.3729412e+03
 4.0537000e+00   8.4110048e+03
 4.0583801e+00   8.3543033e+03
 4.0630598e+00   8.3710827e+03
 4.0677400e+00   8.3598052e+03
 4.0724201e+00   8.2821484e+03
 4.0770998e+00   8.3160143e+03
 4.0817800e+00   8.2930345e+03
 4.0864601e+00   8.2581126e+03
 4.0911398e+00   8.3453363e+03
 4.0958200e+00   8.1832972e+03
 4.1005001e+00   8.2299803e+03
 4.1051798e+00   8.2125657e+03
 4.1098599e+00   8.1698690e+03
 4.1145401e+00   8.2263797e+03
 4.1192198e+00   8.1720689e+03
 4.1238999e+00   8.1234160e+03
 4.1285801e+00   8.2155421e+03
 4.1332598e+00   8.0682187e+03
 4.1379399e+00   8.1255102e+03
 4.1426201e+00   8.1069595e+03
 4.1472998e+00   8.0231800e+03
 4.1519799e+00   8.0555238e+03
 4.1566601e+00   8.0435991e+03
 4.1613402e+00   7.9509483e+03
 4.1660199e+00   8.1030109e+03
 4.1707001e+00   7.9644654e+03
 4.1753802e+00   7.9502204e+03
 4.1800599e+00   8.0007713e+03
 4.1847401e+00   7.9257949e+03
 4.1894202e+00   7.9802544e+03
 4.1940999e+00   7.9482125e+03
 4.1987801e+00   7.9176967e+03
 4.2034602e+00   7.9841796e+03
 4.2081399e+00   7.9384216e+03
 4.2128201e+00   7.9527109e+03
 4.2175002e+00   8.0751074e+03
 4.2221799e+00   7.9415807e+03
 4.2268600e+00   8.0167789e+03
 4.2315402e+00   8.0092836e+03
 4.2362199e+00   7.9318571e+03
 4.2409000e+00   8.0862180e+03
 4.2455802e+00   8.1862652e+03
 4.2502599e+00   8.2310155e+03
 4.2549400e+00   8.4267623e+03
 4.2596202e+00   8.5051570e+03
 4.2642999e+00   8.7299866e+03
 4.2689800e+00   8.9444895e+03
 4.2736602e+00   9.3033973e+03
 4.2783399e+00   9.5635949e+03
 4.2830200e+00   9.8418669e+03
 4.2877002e+00   1.0015034e+04
 4.2923799e+00   1.0173737e+04
 4.2970600e+00   1.0222371e+04
 4.3017402e+00   1.0092876e+04
 4.3064198e+00   1.0027234e+04
 4.3111000e+00   9.7796790e+03
 4.3157802e+00   9.6331840e+03
 4.3204598e+00   9.4021837e+03
 4.3251400e+00   9.1021961e+03
 4.3298202e+00   9.0016761e+03
 4.3344998e+00   8.7955779e+03
 4.3391800e+00   8.6889672e+03
 4.3438601e+00   8.6196057e+03
 4.3485398e+00   8.4669188e+03
 4.3532200e+00   8.3954671e+03
 4.3579001e+00   8.3506911e+03
 4.3625798e+00   8.2167811e+03
 4.3672600e+00   8.1731565e+03
 4.3719401e+00   8.0855751e+03
 4.3766198e+00   8.0372640e+03
 4.3813000e+00   8.0084637e+03
 4.3859801e+00   7.9418811e+03
 4.3906598e+00   7.8558740e+03
 4.3953400e+00   7.9139496e+03
 4.4000201e+00   7.7745992e+03
 4.4046998e+00   7.8566739e+03
 4.4093800e+00   7.7183679e+03
 4.4140601e+00   7.7327905e+03
 4.4187398e+00   7.7103400e+03
 4.4234200e+00   7.6842709e+03
 4.4281001e+00   7.5920162e+03
 4.4327798e+00   7.7010485e+03
 4.4374599e+00   7.6019156e+03
 4.4421401e+00   7.6229718e+03
 4.4468198e+00   7.5970606e+03
 4.4514999e+00   7.5581461e+03
 4.4561801e+00   7.5697331e+03
 4.4608598e+00   7.5382524e+03
 4.4655399e+00   7.4864593e+03
 4.4702201e+00   7.5056721e+03
 4.4748998e+00   7.4712817e+03
 4.4795799e+00   7.4241635e+03
 4.4842601e+00   7.4478142e+03
 4.4889398e+00   7.3823568e+03
 4.4936199e+00   7.3862904e+03
 4.4983001e+00   7.3647322e+03
 4.5029802e+00   7.3031234e+03
 4.5076599e+00   7.2975085e+03
 4.5123401e+00   7.2596154e+03
 4.5170202e+00   7.1936700e+03
 4.5216999e+00   7.2050851e+03
 4.5263801e+00   7.1670424e+03
 4.5310602e+00   7.1459964e+03
 4.5357399e+00   7.1288448e+03
 4.5404201e+00   7.0998465e+03
 4.5451002e+00   7.0820486e+03
 4.5497799e+00   7.0710273e+03
 4.5544600e+00   7.0427005e+03
 4.5591402e+00   7.0448923e+03
 4.5638199e+00   7.0190263e+03
 4.5685000e+00   6.9526221e+03
 4.5731802e+00   6.9897166e+03
 4.5778599e+00   6.9536243e+03
 4.5825400e+00   6.9496810e+03
 4.5872202e+00   6.9332216e+03
 4.5918999e+00   6.9145616e+03
 4.5965800e+00   6.9034824e+03
 4.6012602e+00   6.8855849e+03
 4.6059399e+00   6.8708125e+03
 4.6106200e+00   6.8575877e+03
 4.6153002e+00   6.8323804e+03
 4.6199799e+00   6.8029949e+03
 4.6246600e+00   6.7945391e+03
 4.6293402e+00   6.7818735e+03
 4.6340199e+00   6.7606186e+03
 4.6387000e+00   6.7824452e+03
 4.6433802e+00   6.7373727e+03
 4.6480598e+00   6.7403507e+03
 4.6527400e+00   6.7166681e+03
 4.6574202e+00   6.6910164e+03
 4.6620998e+00   6.7066484e+03
 4.6667800e+00   6.6974956e+03
 4.6714602e+00   6.6675923e+03
 4.6761398e+00   6.6649361e+03
 4.6808200e+00   6.6507838e+03
 4.6855001e+00   6.6543846e+03
 4.6901798e+00   6.6528766e+03
 4.6948600e+00   6.6435623e+03
 4.6995401e+00   6.6260135e+03
 4.7042198e+00   6.6368737e+03
 4.7089000e+00   6.6385307e+03
 4.7135801e+00   6.6587201e+03
 4.7182598e+00   6.6556381e+03
 4.7229400e+00   6.6859109e+03
 4.7276201e+00   6.6773521e+03
 4.7322998e+00   6.7284519e+03
 4.7369800e+00   6.7329102e+03
 4.7416601e+00   6.7520326e+03
 4.7463398e+00   6.7766044e+03
 4.7510200e+00   6.8053763e+03
 4.7557001e+00   6.8142851e+03
 4.7603798e+00   6.8550062e+03
 4.7650599e+00   6.8984260e+03
 4.7697401e+00   6.9479990e+03
 4.7744198e+00   7.0168485e+03
 4.7790999e+00   7.0996898e+03
 4.7837801e+00   7.1716233e+03
 4.7884598e+00   7.3071496e+03
 4.7931399e+00   7.4456055e+03
 4.7978201e+00   7.6036920e+03
 4.8024998e+00   7.7980913e+03
 4.8071799e+00   8.0139562e+03
 4.8118601e+00   8.2579682e+03
 4.8165398e+00   8.5293851e+03
 4.8212199e+00   8.8275965e+03
 4.8259001e+00   9.1016819e+03
 4.8305802e+00   9.3893545e+03
 4.8352599e+00   9.6049808e+03
 4.8399401e+00   9.7657670e+03
 4.8446202e+00   9.7932307e+03
 4.8492999e+00   9.7298675e+03
 4.8539801e+00   9.5251546e+03
 4.8586602e+00   9.2596075e+03
 4.8633399e+00   8.9216953e+03
 4.8680201e+00   8.5978860e+03
 4.8727002e+00   8.2264670e+03
 4.8773799e+00   7.9465812e+03
 4.8820601e+00   7.7365296e+03
 4.8867402e+00   7.5338260e+03
 4.8914199e+00   7.4384189e+03
 4.8961000e+00   7.3652670e+03
 4.9007802e+00   7.3067980e+03
 4.9054599e+00   7.3205489e+03
 4.9101400e+00   7.3361379e+03
 4.9148202e+00   7.3533305e+03
 4.9194999e+00   7.4071930e+03
 4.9241800e+00   7.4689243e+03
 4.9288602e+00   7.5621633e+03
 4.9335399e+00   7.6607595e+03
 4.9382200e+00   7.7839606e+03
 4.9429002e+00   7.8983630e+03
 4.9475799e+00   8.1095181e+03
 4.9522600e+00   8.3143425e+03
 4.9569402e+00   8.5585092e+03
 4.9616199e+00   8.8474352e+03
 4.9663000e+00   9.1827046e+03
 4.9709802e+00   9.4982822e+03
 4.9756598e+00   9.8733598e+03
 4.9803400e+00   1.0201069e+04
 4.9850202e+00   1.0519225e+04
 4.9896998e+00   1.0736823e+04
 4.9943800e+00   1.0896630e+04
 4.9990602e+00   1.0942803e+04
 5.0037398e+00   1.0885785e+04
 5.0084200e+00   1.0710345e+04
 5.0131001e+00   1.0427160e+04
 5.0177798e+00   1.0098768e+04
 5.0224600e+00   9.6921960e+03
 5.0271401e+00   9.2796646e+03
 5.0318198e+00   8.8405326e+03
 5.0365000e+00   8.4921544e+03
 5.0411801e+00   8.1164161e+03
 5.0458598e+00   7.8329103e+03
 5.0505400e+00   7.5574806e+03
 5.0552201e+00   7.3920611e+03
 5.0598998e+00   7.2085633e+03
 5.0645800e+00   7.1037292e+03
 5.0692601e+00   7.0307088e+03
 5.0739398e+00   7.0148160e+03
 5.0786200e+00   7.0543412e+03
 5.0833001e+00   7.1564118e+03
 5.0879798e+00   7.1754256e+03
 5.0926600e+00   7.2976770e+03
 5.0973401e+00   7.3707764e+03
 5.1020198e+00   7.7791404e+03
 5.1066999e+00   8.1263298e+03
 5.1113801e+00   8.1082566e+03
 5.1160598e+00   7.9539764e+03
 5.1207399e+00   8.1691315e+03
 5.1254201e+00   8.8503690e+03
 5.1300998e+00   1.0313800e+04
 5.1347799e+00   1.1393814e+04
 5.1394601e+00   1.2896400e+04
 5.1441398e+00   1.3184574e+04
 5.1488199e+00   1.3416423e+04
 5.1535001e+00   1.2098900e+04
 5.1581802e+00   1.1177344e+04
 5.1628599e+00   9.7992950e+03
 5.1675401e+00   8.7491504e+03
 5.1722202e+00   7.7873532e+03
 5.1768999e+00   7.2254102e+03
 5.1815801e+00   6.7673405e+03
 5.1862602e+00   6.6973637e+03
 5.1909399e+00   6.7863866e+03
 5.1956201e+00   6.7144307e+03
 5.2003002e+00   6.6216657e+03
 5.2049799e+00   6.4367221e+03
 5.2096601e+00   6.3761845e+03
 5.2143402e+00   6.3617499e+03
 5.2190199e+00   6.3057813e+03
 5.2237000e+00   6.2451057e+03
 5.2283802e+00   6.1653946e+03
 5.2330599e+00   6.1435357e+03
 5.2377400e+00   6.0986773e+03
 5.2424202e+00   6.0820885e+03
 5.2470999e+00   6.0743534e+03
 5.2517800e+00   6.0222847e+03
 5.2564602e+00   6.0052569e+03
 5.2611399e+00   5.9901862e+03
 5.2658200e+00   5.9637776e+03
 5.2705002e+00   5.9899068e+03
 5.2751799e+00   5.9260201e+03
 5.2798600e+00   5.9505386e+03
 5.2845402e+00   5.9351152e+03
 5.2892199e+00   5.9133674e+03
 5.2939000e+00   5.9118206e+03
 5.2985802e+00   5.9123335e+03
 5.3032598e+00   5.8811137e+03
 5.3079400e+00   5.8961378e+03
 5.3126202e+00   5.8688262e+03
 5.3172998e+00   5.8873262e+03
 5.3219800e+00   5.8806211e+03
 5.3266602e+00   5.8671486e+03
 5.3313398e+00   5.8593013e+03
 5.3360200e+00   5.8671146e+03
 5.3407001e+00   5.8362399e+03
 5.3453798e+00   5.8283069e+03
 5.3500600e+00   5.8272856e+03
 5.3547401e+00   5.8376377e+03
 5.3594198e+00   5.8253293e+03
 5.3641000e+00   5.8320802e+03
 5.3687801e+00   5.8176776e+03
 5.3734598e+00   5.8234486e+03
 5.3781400e+00   5.8190367e+03
 5.3828201e+00   5.8337810e+03
 5.3874998e+00   5.8256190e+03
 5.3921800e+00   5.8098784e+03
 5.3968601e+00   5.8337239e+03
 5.4015398e+00   5.8097409e+03
 5.4062200e+00   5.8316463e+03
 5.4109001e+00   5.8232606e+03
 5.4155798e+00   5.8287484e+03
 5.4202600e+00   5.8386414e+03
 5.4249401e+00   5.8366000e+03
 5.4296198e+00   5.8277461e+03
 5.4342999e+00   5.8466124e+03
 5.4389801e+00   5.8400015e+03
 5.4436598e+00   5.8608244e+03
 5.4483399e+00   5.8678544e+03
 5.4530201e+00   5.8828973e+03
 5.4576998e+00   5.8999388e+03
 5.4623799e+00   5.9059246e+03
 5.4670601e+00   5.9213115e+03
 5.4717398e+00   5.9622085e+03
 5.4764199e+00   5.9769817e+03
 5.4811001e+00   6.0138293e+03
 5.4857798e+00   6.0553044e+03
 5.4904599e+00   6.0679428e+03
 5.4951401e+00   6.1290686e+03
 5.4998202e+00   6.1849849e+03
 5.5044999e+00   6.2493941e+03
 5.5091801e+00   6.3302446e+03
 5.5138602e+00   6.4438468e+03
 5.5185399e+00   6.5539223e+03
 5.5232201e+00   6.7098400e+03
 5.5279002e+00   6.8652305e+03
 5.5325799e+00   7.1233922e+03
 5.5372601e+00   7.3154400e+03
 5.5419402e+00   7.5821553e+03
 5.5466199e+00   7.8428531e+03
 5.5513000e+00   8.0947139e+03
 5.5559802e+00   8.3108312e+03
 5.5606599e+00   8.4970603e+03
 5.5653400e+00   8.6093760e+03
 5.5700202e+00   8.6827360e+03
 5.5746999e+00   8.6935400e+03
 5.5793800e+00   8.6561230e+03
 5.5840602e+00   8.5856788e+03
 5.5887399e+00   8.4414825e+03
 5.5934200e+00   8.2952456e+03
 5.5981002e+00   8.1539275e+03
 5.6027799e+00   7.9618895e+03
 5.6074600e+00   7.7778106e+03
 5.6121402e+00   7.6059453e+03
 5.6168199e+00   7.4309874e+03
 5.6215000e+00   7.2565590e+03
 5.6261802e+00   7.1163499e+03
 5.6308599e+00   6.9820772e+03
 5.6355400e+00   6.8671749e+03
 5.6402202e+00   6.7611055e+03
 5.6448998e+00   6.6785871e+03
 5.6495800e+00   6.6050301e+03
 5.6542602e+00   6.5004896e+03
 5.6589398e+00   6.4534934e+03
 5.6636200e+00   6.3885764e+03
 5.6683002e+00   6.3355668e+03
 5.6729798e+00   6.2788036e+03
 5.6776600e+00   6.2389798e+03
 5.6823401e+00   6.1960293e+03
 5.6870198e+00   6.1893304e+03
 5.6917000e+00   6.1289136e+03
 5.6963801e+00   6.1265160e+03
 5.7010598e+00   6.1064159e+03
 5.7057400e+00   6.0855438e+03
 5.7104201e+00   6.0881341e+03
 5.7150998e+00   6.0551989e+03
 5.7197800e+00   6.0511456e+03
 5.7244601e+00   6.0497948e+03
 5.7291398e+00   6.0625240e+03
 5.7338200e+00   6.0437955e+03
 5.7385001e+00   6.0617642e+03
 5.7431798e+00   6.0754902e+03
 5.7478600e+00   6.1002383e+03
 5.7525401e+00   6.1058754e+03
 5.7572198e+00   6.1301519e+03
 5.7618999e+00   6.1352206e+03
 5.7665801e+00   6.1313318e+03
 5.7712598e+00   6.1437848e+03
 5.7759399e+00   6.1379228e+03
 5.7806201e+00   6.1218704e+03
 5.7852998e+00   6.1404023e+03
 5.7899799e+00   6.1168085e+03
 5.7946601e+00   6.1206999e+03
 5.7993398e+00   6.1353329e+03
 5.8040199e+00   6.1053540e+03
 5.8087001e+00   6.1299691e+03
 5.8133798e+00   6.1259614e+03
 5.8180599e+00   6.1353491e+03
 5.8227401e+00   6.1638873e+03
 5.8274202e+00   6.1667399e+03
 5.8320999e+00   6.1935296e+03
 5.8367801e+00   6.2221045e+03
 5.8414602e+00   6.2474512e+03
 5.8461399e+00   6.2807937e+03
 5.8508201e+00   6.3254152e+03
 5.8555002e+00   6.3584612e+03
 5.8601799e+00   6.4169632e+03
 5.8648601e+00   6.4808109e+03
 5.8695402e+00   6.5381783e+03
 5.8742199e+00   6.6248772e+03
 5.8789001e+00   6.6892787e+03
 5.8835802e+00   6.8256030e+03
 5.8882599e+00   6.9619093e+03
 5.8929400e+00   7.0622546e+03
 5.8976202e+00   7.2612025e+03
 5.9022999e+00   7.4194039e+03
 5.9069800e+00   7.6850487e+03
 5.9116602e+00   8.0560011e+03
 5.9163399e+00   8.4387392e+03
 5.9210200e+00   8.8512064e+03
 5.9257002e+00   9.0822030e+03
 5.9303799e+00   9.5514468e+03
 5.9350600e+00   1.0286411e+04
 5.9397402e+00   1.0863294e+04
 5.9444199e+00   1.1140175e+04
 5.9491000e+00   1.1248297e+04
 5.9537802e+00   1.1308330e+04
 5.9584599e+00   1.1023192e+04
 5.9631400e+00   1.1080449e+04
 5.9678202e+00   1.1095793e+04
 5.9724998e+00   1.1054181e+04
 5.9771800e+00   1.0945845e+04
 5.9818602e+00   1.0796055e+04
 5.9865398e+00   1.0645137e+04
 5.9912200e+00   1.0461964e+04
 5.9959002e+00   1.0200318e+04
 6.0005798e+00   9.9399732e+03
 6.0052600e+00   9.6029530e+03
 6.0099401e+00   9.3063288e+03
 6.0146198e+00   8.9844453e+03
 6.0193000e+00   8.6320783e+03
 6.0239801e+00   8.3751437e+03
 6.0286598e+00   8.0701825e+03
 6.0333400e+00   7.7928095e+03
 6.0380201e+00   7.5923751e+03
 6.0426998e+00   7.3612963e+03
 6.0473800e+00   7.1683034e+03
 6.0520601e+00   7.0190300e+03
 6.0567398e+00   6.8303026e+03
 6.0614200e+00   6.7486852e+03
 6.0661001e+00   6.6227514e+03
 6.0707798e+00   6.5187607e+03
 6.0754600e+00   6.4614684e+03
 6.0801401e+00   6.3748668e+03
 6.0848198e+00   6.3067985e+03
 6.0895000e+00   6.2824225e+03
 6.0941801e+00   6.2036669e+03
 6.0988598e+00   6.1939699e+03
 6.1035399e+00   6.1636494e+03
 6.1082201e+00   6.1126667e+03
 6.1128998e+00   6.1109842e+03
 6.1175799e+00   6.0701636e+03
 6.1222601e+00   6.0535402e+03
 6.1269398e+00   6.0492575e+03
 6.1316199e+00   6.0139977e+03
 6.1363001e+00   6.0042351e+03
 6.1409798e+00   6.0038289e+03
 6.1456599e+00   5.9710133e+03
 6.1503401e+00   5.9909825e+03
 6.1550202e+00   5.9701588e+03
 6.1596999e+00   5.9570022e+03
 6.1643801e+00   5.9704469e+03
 6.1690602e+00   5.9671425e+03
 6.1737399e+00   5.9446454e+03
 6.1784201e+00   5.9657774e+03
 6.1831002e+00   5.9405691e+03
 6.1877799e+00   5.9495008e+03
 6.1924601e+00   5.9428703e+03
 6.1971402e+00   5.9404176e+03
 6.2018199e+00   5.9586824e+03
 6.2065001e+00   5.9358776e+03
 6.2111802e+00   5.9440403e+03
 6.2158599e+00   5.9683879e+03
 6.2205400e+00   5.9148123e+03
 6.2252202e+00   5.9373629e+03
 6.2298999e+00   5.9482537e+03
 6.2345800e+00   5.9146093e+03
 6.2392602e+00   5.9454889e+03
 6.2439399e+00   5.9425223e+03
 6.2486200e+00   5.9295254e+03
 6.2533002e+00   5.9378357e+03
 6.2579799e+00   5.9537635e+03
 6.2626600e+00   5.9362293e+03
 6.2673402e+00   5.9601019e+03
 6.2720199e+00   5.9196123e+03
 6.2767000e+00   5.9530556e+03
 6.2813802e+00   5.9422019e+03
 6.2860599e+00   5.9549925e+03
 6.2907400e+00   5.9490199e+03
 6.2954202e+00   5.9686866e+03
 6.3000998e+00   5.9468261e+03
 6.3047800e+00   5.9829140e+03
 6.3094602e+00   5.9495149e+03
 6.3141398e+00   5.9910666e+03
 6.3188200e+00   5.9833862e+03
 6.3235002e+00   5.9751521e+03
 6.3281798e+00   6.0025201e+03
 6.3328600e+00   6.0003599e+03
 6.3375401e+00   6.0135978e+03
 6.3422198e+00   6.0089956e+03
 6.3469000e+00   5.9922094e+03
 6.3515801e+00   6.0093119e+03
 6.3562598e+00   6.0230944e+03
 6.3609400e+00   5.9890037e+03
 6.3656201e+00   6.0141565e+03
 6.3702998e+00   5.9943640e+03
 6.3749800e+00   6.0008319e+03
 6.3796601e+00   5.9970119e+03
 6.3843398e+00   6.0161956e+03
 6.3890200e+00   6.0023293e+03
 6.3937001e+00   6.0210913e+03
 6.3983798e+00   6.0082227e+03
 6.4030600e+00   6.0321693e+03
 6.4077401e+00   6.0502366e+03
 6.4124198e+00   6.0505140e+03
 6.4171000e+00   6.0852557e+03
 6.4217801e+00   6.0885896e+03
 6.4264598e+00   6.0786044e+03
 6.4311399e+00   6.0858476e+03
 6.4358201e+00   6.0873830e+03
 6.4404998e+00   6.1123934e+03
 6.4451799e+00   6.1086152e+03
 6.4498601e+00   6.0925570e+03
 6.4545398e+00   6.0973397e+03
 6.4592199e+00   6.1061491e+03
 6.4639001e+00   6.1130320e+03
 6.4685798e+00   6.1072448e+03
 6.4732599e+00   6.1067494e+03
 6.4779401e+00   6.1150793e+03
 6.4826198e+00   6.0965168e+03
 6.4872999e+00   6.1139614e+03
 6.4919801e+00   6.1124936e+03
 6.4966602e+00   6.1534930e+03
 6.5013399e+00   6.0957770e+03
 6.5060201e+00   6.1508678e+03
 6.5107002e+00   6.1195093e+03
 6.5153799e+00   6.1341592e+03
 6.5200601e+00   6.1532399e+03
 6.5247402e+00   6.1324819e+03
 6.5294199e+00   6.1020195e+03
 6.5341001e+00   6.1513363e+03
 6.5387802e+00   6.1366336e+03
 6.5434599e+00   6.1615000e+03
 6.5481400e+00   6.1867979e+03
 6.5528202e+00   6.1864833e+03
 6.5574999e+00   6.2051017e+03
 6.5621800e+00   6.1766460e+03
 6.5668602e+00   6.2268011e+03
 6.5715399e+00   6.2278608e+03
 6.5762200e+00   6.2284687e+03
 6.5809002e+00   6.2444582e+03
 6.5855799e+00   6.2704303e+03
 6.5902600e+00   6.2271638e+03
 6.5949402e+00   6.2690048e+03
 6.5996199e+00   6.2301000e+03
 6.6043000e+00   6.2853328e+03
 6.6089802e+00   6.2615857e+03
 6.6136599e+00   6.2795983e+03
 6.6183400e+00   6.2931627e+03
 6.6230202e+00   6.2961108e+03
 6.6276999e+00   6.3015950e+03
 6.6323800e+00   6.3168785e+03
 6.6370602e+00   6.3279403e+03
 6.6417398e+00   6.3260396e+03
 6.6464200e+00   6.4078180e+03
 6.6511002e+00   6.3631082e+03
 6.6557798e+00   6.4058336e+03
 6.6604600e+00   6.4105586e+03
 6.6651402e+00   6.4333852e+03
 6.6698198e+00   6.4225923e+03
 6.6745000e+00   6.4574522e+03
 6.6791801e+00   6.4311180e+03
 6.6838598e+00   6.5156338e+03
 6.6885400e+00   6.4275692e+03
 6.6932201e+00   6.5177509e+03
 6.6978998e+00   6.4641989e+03
 6.7025800e+00   6.4982695e+03
 6.7072601e+00   6.5185266e+03
 6.7119398e+00   6.5333081e+03
 6.7166200e+00   6.5369330e+03
 6.7213001e+00   6.5454644e+03
 6.7259798e+00   6.5691687e+03
 6.7306600e+00   6.5855187e+03
 6.7353401e+00   6.6358503e+03
 6.7400198e+00   6.5927473e+03
 6.7447000e+00   6.6734488e+03
 6.7493801e+00   6.6132470e+03
 6.7540598e+00   6.6926309e+03
 6.7587399e+00   6.6660216e+03
 6.7634201e+00   6.7151208e+03
 6.7680998e+00   6.6986786e+03
 6.7727799e+00   6.7982060e+03
 6.7774601e+00   6.6917037e+03
 6.7821398e+00   6.7928218e+03
 6.7868199e+00   6.7586690e+03
 6.7915001e+00   6.8113569e+03
 6.7961798e+00   6.7932243e+03
 6.8008599e+00   6.8000721e+03
 6.8055401e+00   6.7990056e+03
 6.8102198e+00   6.8118778e+03
 6.8148999e+00   6.8343085e+03
 6.8195801e+00   6.8330262e+03
 6.8242602e+00   6.8575035e+03
 6.8289399e+00   6.8292334e+03
 6.8336201e+00   6.9080845e+03
 6.8383002e+00   6.8868335e+03
 6.8429799e+00   6.9323941e+03
 6.8476601e+00   7.0115493e+03
 6.8523402e+00   6.9717903e+03
 6.8570199e+00   7.0357776e+03
 6.8617001e+00   7.0705615e+03
 6.8663802e+00   7.1496767e+03
 6.8710599e+00   7.2054437e+03
 6.8757401e+00   7.2831014e+03
 6.8804202e+00   7.3164858e+03
 6.8850999e+00   7.4020531e+03
 6.8897800e+00   7.5180164e+03
 6.8944602e+00   7.5792899e+03
 6.8991399e+00   7.7373180e+03
 6.9038200e+00   7.8099609e+03
 6.9085002e+00   7.9694805e+03
 6.9131799e+00   8.0029745e+03
 6.9178600e+00   8.2371871e+03
 6.9225402e+00   8.2757031e+03
 6.9272199e+00   8.3965990e+03
 6.9319000e+00   8.4196288e+03
 6.9365802e+00   8.5382565e+03
 6.9412599e+00   8.4790612e+03
 6.9459400e+00   8.5727836e+03
 6.9506202e+00   8.5175211e+03
 6.9552999e+00   8.5581847e+03
 6.9599800e+00   8.5149121e+03
 6.9646602e+00   8.4289930e+03
 6.9693398e+00   8.3122496e+03
 6.9740200e+00   8.2979886e+03
 6.9787002e+00   8.1874548e+03
 6.9833798e+00   8.1067334e+03
 6.9880600e+00   8.0616758e+03
 6.9927402e+00   7.9701285e+03
 6.9974198e+00   7.9268786e+03
 7.0021000e+00   7.8228595e+03
 7.0067801e+00   7.8145352e+03
 7.0114598e+00   7.7597511e+03
 7.0161400e+00   7.7089641e+03
 7.0208201e+00   7.6336116e+03
 7.0254998e+00   7.6263461e+03
 7.0301800e+00   7.5372039e+03
 7.0348601e+00   7.5868805e+03
 7.0395398e+00   7.5128721e+03
 7.0442200e+00   7.5418211e+03
 7.0489001e+00   7.4743041e+03
 7.0535798e+00   7.4679211e+03
 7.0582600e+00   7.4321881e+03
 7.0629401e+00   7.4881866e+03
 7.0676198e+00   7.3827720e+03
 7.0723000e+00   7.4160849e+03
 7.0769801e+00   7.3009274e+03
 7.0816598e+00   7.2556660e+03
 7.0863400e+00   7.2236249e+03
 7.0910201e+00   7.1090479e+03
 7.0956998e+00   7.0415849e+03
 7.1003799e+00   7.0229253e+03
 7.1050601e+00   6.9871532e+03
 7.1097398e+00   6.9367941e+03
 7.1144199e+00   6.9231032e+03
 7.1191001e+00   6.8815308e+03
 7.1237798e+00   6.8984655e+03
 7.1284599e+00   6.8561653e+03
 7.1331401e+00   6.8551633e+03
 7.1378198e+00   6.8277242e+03
 7.1424999e+00   6.8305164e+03
 7.1471801e+00   6.8007816e+03
 7.1518602e+00   6.8082268e+03
 7.1565399e+00   6.7955378e+03
 7.1612201e+00   6.7844757e+03
 7.1659002e+00   6.7536707e+03
 7.1705799e+00   6.7731418e+03
 7.1752601e+00   6.7742845e+03
 7.1799402e+00   6.7587873e+03
 7.1846199e+00   6.7424146e+03
 7.1893001e+00   6.7452217e+03
 7.1939802e+00   6.7304911e+03
 7.1986599e+00   6.7091600e+03
 7.2033401e+00   6.7155326e+03
 7.2080202e+00   6.6918260e+03
 7.2126999e+00   6.7231072e+03
 7.2173800e+00   6.6736043e+03
 7.2220602e+00   6.6844339e+03
 7.2267399e+00   6.6851301e+03
 7.2314200e+00   6.6928604e+03
 7.2361002e+00   6.6855564e+03
 7.2407799e+00   6.6936766e+03
 7.2454600e+00   6.6861348e+03
 7.2501402e+00   6.7091655e+03
 7.2548199e+00   6.7168232e+03
 7.2595000e+00   6.7146907e+03
 7.2641802e+00   6.7412372e+03
 7.2688599e+00   6.7257193e+03
 7.2735400e+00   6.7295619e+03
 7.2782202e+00   6.7266459e+03
 7.2828999e+00   6.7249199e+03
 7.2875800e+00   6.7293199e+03
 7.2922602e+00   6.7132165e+03
 7.2969398e+00   6.6995756e+03
 7.3016200e+00   6.7261445e+03
 7.3063002e+00   6.7192561e+03
 7.3109798e+00   6.7283561e+03
 7.3156600e+00   6.7407674e+03
 7.3203402e+00   6.7542440e+03
 7.3250198e+00   6.7957873e+03
 7.3297000e+00   6.7955263e+03
 7.3343801e+00   6.7977967e+03
 7.3390598e+00   6.8298346e+03
 7.3437400e+00   6.8331729e+03
 7.3484201e+00   6.8337163e+03
 7.3530998e+00   6.8605168e+03
 7.3577800e+00   6.8810156e+03
 7.3624601e+00   6.8901789e+03
 7.3671398e+00   6.9028925e+03
 7.3718200e+00   6.9330630e+03
 7.3765001e+00   6.9444941e+03
 7.3811798e+00   6.9617008e+03
 7.3858600e+00   6.9776987e+03
 7.3905401e+00   7.0077267e+03
 7.3952198e+00   7.0316160e+03
 7.3999000e+00   7.0589845e+03
 7.4045801e+00   7.0913679e+03
 7.4092598e+00   7.1118558e+03
 7.4139400e+00   7.1670444e+03
 7.4186201e+00   7.1884443e+03
 7.4232998e+00   7.2468046e+03
 7.4279799e+00   7.2929314e+03
 7.4326601e+00   7.3538937e+03
 7.4373398e+00   7.3859817e+03
 7.4420199e+00   7.4378453e+03
 7.4467001e+00   7.4779961e+03
 7.4513798e+00   7.5166205e+03
 7.4560599e+00   7.5390322e+03
 7.4607401e+00   7.5568581e+03
 7.4654198e+00   7.5697393e+03
 7.4700999e+00   7.5527083e+03
 7.4747801e+00   7.5521987e+03
 7.4794598e+00   7.5225828e+03
 7.4841399e+00   7.5132947e+03
 7.4888201e+00   7.4649699e+03
 7.4935002e+00   7.4275740e+03
 7.4981799e+00   7.3884061e+03
 7.5028601e+00   7.3693997e+03
 7.5075402e+00   7.2962393e+03
 7.5122199e+00   7.2695814e+03
 7.5169001e+00   7.2022744e+03
 7.5215802e+00   7.1694191e+03
 7.5262599e+00   7.1313456e+03
 7.5309401e+00   7.0769957e+03
 7.5356202e+00   7.0601197e+03
 7.5402999e+00   7.0159998e+03
 7.5449800e+00   7.0091431e+03
 7.5496602e+00   6.9630524e+03
 7.5543399e+00   6.9416997e+03
 7.5590200e+00   6.9046517e+03
 7.5637002e+00   6.9144934e+03
 7.5683799e+00   6.8670426e+03
 7.5730600e+00   6.8711974e+03
 7.5777402e+00   6.8351479e+03
 7.5824199e+00   6.8159055e+03
 7.5871000e+00   6.7877670e+03
 7.5917802e+00   6.7679438e+03
 7.5964599e+00   6.7445088e+03
 7.6011400e+00   6.7231839e+03
 7.6058202e+00   6.6773470e+03
 7.6104999e+00   6.6537121e+03
 7.6151800e+00   6.6512004e+03
 7.6198602e+00   6.5315070e+03
 7.6245399e+00   6.5363113e+03
 7.6292200e+00   6.4580371e+03
 7.6339002e+00   6.4513910e+03
 7.6385798e+00   6.3931973e+03
 7.6432600e+00   6.3825370e+03
 7.6479402e+00   6.3464528e+03
 7.6526198e+00   6.3296884e+03
 7.6573000e+00   6.2834374e+03
 7.6619802e+00   6.2875404e+03
 7.6666598e+00   6.2516901e+03
 7.6713400e+00   6.2330357e+03
 7.6760201e+00   6.2126118e+03
 7.6806998e+00   6.1869165e+03
 7.6853800e+00   6.1754157e+03
 7.6900601e+00   6.1569404e+03
 7.6947398e+00   6.1485840e+03
 7.6994200e+00   6.1154995e+03
 7.7041001e+00   6.1231709e+03
 7.7087798e+00   6.1160139e+03
 7.7134600e+00   6.1133159e+03
 7.7181401e+00   6.0756631e+03
 7.7228198e+00   6.0921409e+03
 7.7275000e+00   6.0497934e+03
 7.7321801e+00   6.0614998e+03
 7.7368598e+00   6.0334729e+03
 7.7415400e+00   6.0244914e+03
 7.7462201e+00   6.0051725e+03
 7.7508998e+00   5.9942509e+03
 7.7555799e+00   5.9608411e+03
 7.7602601e+00   5.9822928e+03
 7.7649398e+00   5.9544383e+03
 7.7696199e+00   5.9423957e+03
 7.7743001e+00   5.9330336e+03
 7.7789798e+00   5.8983453e+03
 7.7836599e+00   5.9109703e+03
 7.7883401e+00   5.8977937e+03
 7.7930198e+00   5.9079588e+03
 7.7976999e+00   5.8953574e+03
 7.8023801e+00   5.8830375e+03
 7.8070598e+00   5.8652241e+03
 7.8117399e+00   5.8665046e+03
 7.8164201e+00   5.8447497e+03
 7.8211002e+00   5.8481582e+03
 7.8257799e+00   5.8319637e+03
 7.8304601e+00   5.8042917e+03
 7.8351402e+00   5.8221022e+03
 7.8398199e+00   5.8088201e+03
 7.8445001e+00   5.7966272e+03
 7.8491802e+00   5.7964427e+03
 7.8538599e+00   5.7695136e+03
 7.8585401e+00   5.7739012e+03
 7.8632202e+00   5.7754072e+03
 7.8678999e+00   5.7452088e+03
 7.8725801e+00   5.7730599e+03
 7.8772602e+00   5.7556311e+03
 7.8819399e+00   5.7458884e+03
 7.8866200e+00   5.7519129e+03
 7.8913002e+00   5.7342206e+03
 7.8959799e+00   5.7127292e+03
 7.9006600e+00   5.7331086e+03
 7.9053402e+00   5.6881950e+03
 7.9100199e+00   5.7217473e+03
 7.9147000e+00   5.6847730e+03
 7.9193802e+00   5.6867221e+03
 7.9240599e+00   5.6823074e+03
 7.9287400e+00   5.6730578e+03
 7.9334202e+00   5.6662738e+03
 7.9380999e+00   5.6648619e+03
 7.9427800e+00   5.6384538e+03
 7.9474602e+00   5.6493286e+03
 7.9521399e+00   5.6352314e+03
 7.9568200e+00   5.6206676e+03
 7.9615002e+00   5.6378601e+03
 7.9661798e+00   5.6200238e+03
 7.9708600e+00   5.6166904e+03
 7.9755402e+00   5.6168391e+03
 7.9802198e+00   5.6012016e+03
 7.9849000e+00   5.6165739e+03
 7.9895802e+00   5.6170970e+03
 7.9942598e+00   5.5823263e+03
 7.9989400e+00   5.6083738e+03
 8.0036201e+00   5.5733796e+03
 8.0082998e+00   5.5870806e+03
 8.0129805e+00   5.5711193e+03
 8.0176601e+00   5.5582729e+03
 8.0223398e+00   5.5518107e+03
 8.0270205e+00   5.5422613e+03
 8.0317001e+00   5.5423351e+03
 8.0363798e+00   5.5708101e+03
 8.0410604e+00   5.5382067e+03
 8.0457401e+00   5.5458394e+03
 8.0504198e+00   5.5382457e+03
 8.0551004e+00   5.5226087e+03
 8.0597801e+00   5.5490395e+03
 8.0644598e+00   5.5470564e+03
 8.0691404e+00   5.5464368e+03
 8.0738201e+00   5.5571960e+03
 8.0784998e+00   5.5539314e+03
 8.0831804e+00   5.5509338e+03
 8.0878601e+00   5.6070775e+03
 8.0925398e+00   5.5670586e+03
 8.0972204e+00   5.6082597e+03
 8.1019001e+00   5.6133049e+03
 8.1065798e+00   5.6156355e+03
 8.1112604e+00   5.6548427e+03
 8.1159401e+00   5.6367985e+03
 8.1206198e+00   5.6489704e+03
 8.1253004e+00   5.6575936e+03
 8.1299801e+00   5.6563913e+03
 8.1346598e+00   5.6566801e+03
 8.1393404e+00   5.6724271e+03
 8.1440201e+00   5.6407536e+03
 8.1486998e+00   5.6889716e+03
 8.1533804e+00   5.6556147e+03
 8.1580601e+00   5.6954347e+03
 8.1627398e+00   5.6708745e+03
 8.1674204e+00   5.7001488e+03
 8.1721001e+00   5.6919741e+03
 8.1767797e+00   5.7165520e+03
 8.1814604e+00   5.7039432e+03
 8.1861401e+00   5.7640917e+03
 8.1908197e+00   5.7592887e+03
 8.1955004e+00   5.8043004e+03
 8.2001801e+00   5.8535579e+03
 8.2048597e+00   5.8903959e+03
 8.2095404e+00   5.9458325e+03
 8.2142200e+00   6.0203512e+03
 8.2188997e+00   6.0657357e+03
 8.2235804e+00   6.1562996e+03
 8.2282600e+00   6.2389500e+03
 8.2329397e+00   6.2884859e+03
 8.2376204e+00   6.4228475e+03
 8.2423000e+00   6.4885991e+03
 8.2469797e+00   6.6359693e+03
 8.2516603e+00   6.7482756e+03
 8.2563400e+00   6.8833027e+03
 8.2610197e+00   7.0062519e+03
 8.2657003e+00   7.1256940e+03
 8.2703800e+00   7.2621419e+03
 8.2750597e+00   7.4221548e+03
 8.2797403e+00   7.5416127e+03
 8.2844200e+00   7.6338912e+03
 8.2890997e+00   7.7610961e+03
 8.2937803e+00   7.7987831e+03
 8.2984600e+00   7.8841921e+03
 8.3031397e+00   7.8801754e+03
 8.3078203e+00   7.8588086e+03
 8.3125000e+00   7.7731471e+03
 8.3171797e+00   7.7027224e+03
 8.3218603e+00   7.5127373e+03
 8.3265400e+00   7.3568795e+03
 8.3312197e+00   7.1540829e+03
 8.3359003e+00   6.9899935e+03
 8.3405800e+00   6.7939019e+03
 8.3452597e+00   6.6326621e+03
 8.3499403e+00   6.4501994e+03
 8.3546200e+00   6.3622616e+03
 8.3592997e+00   6.2280664e+03
 8.3639803e+00   6.1707863e+03
 8.3686600e+00   6.1444087e+03
 8.3733397e+00   6.2042467e+03
 8.3780203e+00   6.3102478e+03
 8.3827000e+00   6.4226406e+03
 8.3873796e+00   6.3433394e+03
 8.3920603e+00   6.4467226e+03
 8.3967400e+00   6.6139950e+03
 8.4014196e+00   6.9275478e+03
 8.4061003e+00   7.0650073e+03
 8.4107800e+00   7.1008033e+03
 8.4154596e+00   6.9112381e+03
 8.4201403e+00   6.8230415e+03
 8.4248199e+00   6.3077931e+03
 8.4294996e+00   6.2308071e+03
 8.4341803e+00   6.1685450e+03
 8.4388599e+00   6.1018741e+03
 8.4435396e+00   5.9591580e+03
 8.4482203e+00   5.8111559e+03
 8.4528999e+00   5.7598337e+03
 8.4575796e+00   5.7391285e+03
 8.4622602e+00   5.7069697e+03
 8.4669399e+00   5.7252614e+03
 8.4716196e+00   5.7300456e+03
 8.4763002e+00   5.7672276e+03
 8.4809799e+00   5.7706559e+03
 8.4856596e+00   5.8203997e+03
 8.4903402e+00   5.8468348e+03
 8.4950199e+00   5.9139025e+03
 8.4996996e+00   5.9640703e+03
 8.5043802e+00   6.0216923e+03
 8.5090599e+00   6.0681373e+03
 8.5137396e+00   6.1733011e+03
 8.5184202e+00   6.2252926e+03
 8.5230999e+00   6.3413277e+03
 8.5277796e+00   6.4333140e+03
 8.5324602e+00   6.5428547e+03
 8.5371399e+00   6.6465055e+03
 8.5418196e+00   6.7717031e+03
 8.5465002e+00   6.8821771e+03
 8.5511799e+00   7.0181300e+03
 8.5558596e+00   7.1339471e+03
 8.5605402e+00   7.2377819e+03
 8.5652199e+00   7.3631425e+03
 8.5698996e+00   7.4221092e+03
 8.5745802e+00   7.5110076e+03
 8.5792599e+00   7.5513123e+03
 8.5839396e+00   7.6090421e+03
 8.5886202e+00   7.5745208e+03
 8.5932999e+00   7.5736659e+03
 8.5979795e+00   7.5050508e+03
 8.6026602e+00   7.4422024e+03
 8.6073399e+00   7.3375741e+03
 8.6120195e+00   7.2563499e+03
 8.6167002e+00   7.1400163e+03
 8.6213799e+00   7.0058068e+03
 8.6260595e+00   6.8927251e+03
 8.6307402e+00   6.7699698e+03
 8.6354198e+00   6.6719574e+03
 8.6400995e+00   6.5383722e+03
 8.6447802e+00   6.4456536e+03
 8.6494598e+00   6.3189070e+03
 8.6541405e+00   6.2362294e+03
 8.6588202e+00   6.1229997e+03
 8.6634998e+00   6.0582774e+03
 8.6681805e+00   5.9773732e+03
 8.6728601e+00   5.9024894e+03
 8.6775398e+00   5.8204156e+03
 8.6822205e+00   5.7653821e+03
 8.6869001e+00   5.7136587e+03
 8.6915798e+00   5.6687059e+03
 8.6962605e+00   5.6261319e+03
 8.7009401e+00   5.5722507e+03
 8.7056198e+00   5.5397567e+03
 8.7103004e+00   5.5050353e+03
 8.7149801e+00   5.4946098e+03
 8.7196598e+00   5.4465529e+03
 8.7243404e+00   5.4347301e+03
 8.7290201e+00   5.4066340e+03
 8.7336998e+00   5.3822706e+03
 8.7383804e+00   5.3444886e+03
 8.7430601e+00   5.3489648e+03
 8.7477398e+00   5.3206550e+03
 8.7524204e+00   5.3144612e+03
 8.7571001e+00   5.2845944e+03
 8.7617798e+00   5.2682608e+03
 8.7664604e+00   5.2572235e+03
 8.7711401e+00   5.2457536e+03
 8.7758198e+00   5.2360386e+03
 8.7805004e+00   5.2313233e+03
 8.7851801e+00   5.2154500e+03
 8.7898598e+00   5.2085008e+03
 8.7945404e+00   5.2048090e+03
 8.7992201e+00   5.1863204e+03
 8.8038998e+00   5.1915942e+03
 8.8085804e+00   5.1626069e+03
 8.8132601e+00   5.1648294e+03
 8.8179398e+00   5.1536907e+03
 8.8226204e+00   5.1500081e+03
 8.8273001e+00   5.1231322e+03
 8.8319798e+00   5.1375910e+03
 8.8366604e+00   5.1106877e+03
 8.8413401e+00   5.1192182e+03
 8.8460197e+00   5.0967843e+03
 8.8507004e+00   5.1000703e+03
 8.8553801e+00   5.0835108e+03
 8.8600597e+00   5.0605059e+03
 8.8647404e+00   5.0711563e+03
 8.8694201e+00   5.0514563e+03
 8.8740997e+00   5.0546527e+03
 8.8787804e+00   5.0384681e+03
 8.8834600e+00   5.0292848e+03
 8.8881397e+00   5.0224029e+03
 8.8928204e+00   5.0166362e+03
 8.8975000e+00   4.9987335e+03
 8.9021797e+00   5.0118061e+03
 8.9068604e+00   4.9930496e+03
 8.9115400e+00   4.9900673e+03
 8.9162197e+00   4.9989795e+03
 8.9209003e+00   4.9770704e+03
 8.9255800e+00   4.9925739e+03
 8.9302597e+00   4.9850831e+03
 8.9349403e+00   4.9754291e+03
 8.9396200e+00   4.9820042e+03
 8.9442997e+00   4.9740236e+03
 8.9489803e+00   4.9759450e+03
 8.9536600e+00   5.0022886e+03
 8.9583397e+00   4.9812252e+03
 8.9630203e+00   4.9797506e+03
 8.9677000e+00   4.9742139e+03
 8.9723797e+00   4.9816988e+03
 8.9770603e+00   4.9745683e+03
 8.9817400e+00   5.0003771e+03
 8.9864197e+00   4.9791510e+03
 8.9911003e+00   4.9825810e+03
 8.9957800e+00   4.9768796e+03
 9.0004597e+00   4.9836130e+03
 9.0051403e+00   4.9654128e+03
 9.0098200e+00   4.9649670e+03
 9.0144997e+00   4.9771107e+03
 9.0191803e+00   4.9648041e+03
 9.0238600e+00   4.9596251e+03
 9.0285397e+00   4.9653153e+03
 9.0332203e+00   4.9582977e+03
 9.0379000e+00   4.9569767e+03
 9.0425797e+00   4.9582484e+03
 9.0472603e+00   4.9489285e+03
 9.0519400e+00   4.9657809e+03
 9.0566196e+00   4.9423961e+03
 9.0613003e+00   4.9547094e+03
 9.0659800e+00   4.9495522e+03
 9.0706596e+00   4.9506118e+03
 9.0753403e+00   4.9392437e+03
 9.0800200e+00   4.9436112e+03
 9.0846996e+00   4.9358615e+03
 9.0893803e+00   4.9454096e+03
 9.0940599e+00   4.9571389e+03
 9.0987396e+00   4.9516784e+03
 9.1034203e+00   4.9578613e+03
 9.1080999e+00   4.9544202e+03
 9.1127796e+00   4.9778939e+03
 9.1174603e+00   4.9821493e+03
 9.1221399e+00   4.9827250e+03
 9.1268196e+00   4.9907246e+03
 9.1315002e+00   5.0058055e+03
 9.1361799e+00   4.9982299e+03
 9.1408596e+00   5.0292395e+03
 9.1455402e+00   5.0161126e+03
 9.1502199e+00   5.0436720e+03
 9.1548996e+00   5.0494452e+03
 9.1595802e+00   5.0664095e+03
 9.1642599e+00   5.0868891e+03
 9.1689396e+00   5.0947528e+03
 9.1736202e+00   5.1063297e+03
 9.1782999e+00   5.1300746e+03
 9.1829796e+00   5.1415719e+03
 9.1876602e+00   5.1597073e+03
 9.1923399e+00   5.1806495e+03
 9.1970196e+00   5.1924691e+03
 9.2017002e+00   5.2062437e+03
 9.2063799e+00   5.2210451e+03
 9.2110596e+00   5.2333561e+03
 9.2157402e+00   5.2558136e+03
 9.2204199e+00   5.2653286e+03
 9.2250996e+00   5.2671477e+03
 9.2297802e+00   5.2743874e+03
 9.2344599e+00   5.2835450e+03
 9.2391396e+00   5.2985275e+03
 9.2438202e+00   5.3092845e+03
 9.2484999e+00   5.3165568e+03
 9.2531796e+00   5.3412914e+03
 9.2578602e+00   5.3423698e+03
 9.2625399e+00   5.3755835e+03
 9.2672195e+00   5.3811974e+03
 9.2719002e+00   5.4014129e+03
 9.2765799e+00   5.4195573e+03
 9.2812595e+00   5.4378072e+03
 9.2859402e+00   5.4450036e+03
 9.2906199e+00   5.4894307e+03
 9.2952995e+00   5.5115131e+03
 9.2999802e+00   5.5326683e+03
 9.3046598e+00   5.5574602e+03
 9.3093395e+00   5.5931170e+03
 9.3140202e+00   5.6198502e+03
 9.3186998e+00   5.6273337e+03
 9.3233805e+00   5.6418607e+03
 9.3280602e+00   5.6809479e+03
 9.3327398e+00   5.6929081e+03
 9.3374205e+00   5.7111739e+03
 9.3421001e+00   5.7275261e+03
 9.3467798e+00   5.7141710e+03
 9.3514605e+00   5.7290305e+03
 9.3561401e+00   5.7050587e+03
 9.3608198e+00   5.7041454e+03
 9.3655005e+00   5.6789749e+03
 9.3701801e+00   5.6500811e+03
 9.3748598e+00   5.6224425e+03
 9.3795404e+00   5.5787895e+03
 9.3842201e+00   5.5377932e+03
 9.3888998e+00   5.5247747e+03
 9.3935804e+00   5.4754620e+03
 9.3982601e+00   5.4209045e+03
 9.4029398e+00   5.3989903e+03
 9.4076204e+00   5.3569126e+03
 9.4123001e+00   5.3190479e+03
 9.4169798e+00   5.2899496e+03
 9.4216604e+00   5.2631351e+03
 9.4263401e+00   5.2290589e+03
 9.4310198e+00   5.2085532e+03
 9.4357004e+00   5.1889800e+03
 9.4403801e+00   5.1761216e+03
 9.4450598e+00   5.1499592e+03
 9.4497404e+00   5.1486233e+03
 9.4544201e+00   5.1313322e+03
 9.4590998e+00   5.1264058e+03
 9.4637804e+00   5.1122442e+03
 9.4684601e+00   5.1099051e+03
 9.4731398e+00   5.1156949e+03
 9.4778204e+00   5.1112388e+03
 9.4825001e+00   5.1024633e+03
 9.4871798e+00   5.1112217e+03
 9.4918604e+00   5.1099473e+03
 9.4965401e+00   5.1127928e+03
 9.5012197e+00   5.1282487e+03
 9.5059004e+00   5.1242444e+03
 9.5105801e+00   5.1148097e+03
 9.5152597e+00   5.1285844e+03
 9.5199404e+00   5.1200689e+03
 9.5246201e+00   5.1144879e+03
 9.5292997e+00   5.1363499e+03
 9.5339804e+00   5.1270292e+03
 9.5386600e+00   5.1374852e+03
 9.5433397e+00   5.1404722e+03
 9.5480204e+00   5.1404946e+03
 9.5527000e+00   5.1585456e+03
 9.5573797e+00   5.1667472e+03
 9.5620604e+00   5.1895142e+03
 9.5667400e+00   5.1908936e+03
 9.5714197e+00   5.2111449e+03
 9.5761003e+00   5.2388248e+03
 9.5807800e+00   5.2488518e+03
 9.5854597e+00   5.2650530e+03
 9.5901403e+00   5.2877150e+03
 9.5948200e+00   5.2944759e+03
 9.5994997e+00   5.3135120e+03
 9.6041803e+00   5.3458941e+03
 9.6088600e+00   5.3567753e+03
 9.6135397e+00   5.3790184e+03
 9.6182203e+00   5.3843029e+03
 9.6229000e+00   5.3826880e+03
 9.6275797e+00   5.3981005e+03
 9.6322603e+00   5.4084790e+03
 9.6369400e+00   5.4148513e+03
 9.6416197e+00   5.4119431e+03
 9.6463003e+00   5.4142306e+03
 9.6509800e+00   5.4379045e+03
 9.6556597e+00   5.4361454e+03
 9.6603403e+00   5.4514478e+03
 9.6650200e+00   5.4706312e+03
 9.6696997e+00   5.4770942e+03
 9.6743803e+00   5.5047068e+03
 9.6790600e+00   5.5170431e+03
 9.6837397e+00   5.5297972e+03
 9.6884203e+00   5.5469082e+03
 9.6931000e+00   5.5385135e+03
 9.6977797e+00   5.5535191e+03
 9.7024603e+00   5.5533198e+03
 9.7071400e+00   5.5300704e+03
 9.7118196e+00   5.5204569e+03
 9.7165003e+00   5.4839979e+03
 9.7211800e+00   5.4464136e+03
 9.7258596e+00   5.4287805e+03
 9.7305403e+00   5.3855953e+03
 9.7352200e+00   5.3505013e+03
 9.7398996e+00   5.3044126e+03
 9.7445803e+00   5.2799100e+03
 9.7492599e+00   5.2528726e+03
 9.7539396e+00   5.2315304e+03
 9.7586203e+00   5.2016626e+03
 9.7632999e+00   5.1853798e+03
 9.7679796e+00   5.1766715e+03
 9.7726603e+00   5.1557819e+03
 9.7773399e+00   5.1736629e+03
 9.7820196e+00   5.1627076e+03
 9.7867002e+00   5.1812886e+03
 9.7913799e+00   5.1828016e+03
 9.7960596e+00   5.1894096e+03
 9.8007402e+00   5.2119602e+03
 9.8054199e+00   5.2602191e+03
 9.8100996e+00   5.3079747e+03
 9.8147802e+00   5.3827016e+03
 9.8194599e+00   5.5012335e+03
 9.8241396e+00   5.6374246e+03
 9.8288202e+00   5.6960941e+03
 9.8334999e+00   6.3011197e+03
 9.8381796e+00   6.8016647e+03
 9.8428602e+00   7.4861086e+03
 9.8475399e+00   8.4191407e+03
 9.8522196e+00   8.8701477e+03
 9.8569002e+00   9.9590432e+03
 9.8615799e+00   1.0878291e+04
 9.8662596e+00   1.0987310e+04
 9.8709402e+00   1.0280603e+04
 9.8756199e+00   9.5223210e+03
 9.8802996e+00   8.3596470e+03
 9.8849802e+00   7.0019535e+03
 9.8896599e+00   6.7374843e+03
 9.8943396e+00   6.3971120e+03
 9.8990202e+00   6.0263238e+03
 9.9036999e+00   5.7374887e+03
 9.9083796e+00   5.5643529e+03
 9.9130602e+00   5.4635195e+03
 9.9177399e+00   5.4101654e+03
 9.9224195e+00   5.3719224e+03
 9.9271002e+00   5.3506100e+03
 9.9317799e+00   5.3344660e+03
 9.9364595e+00   5.3269834e+03
 9.9411402e+00   5.3200760e+03
 9.9458199e+00   5.3117290e+03
 9.9504995e+00   5.3158706e+03
 9.9551802e+00   5.3181183e+03
 9.9598598e+00   5.3285019e+03
 9.9645395e+00   5.3347579e+03
 9.9692202e+00   5.3365080e+03
 9.9738998e+00   5.3387019e+03
 9.9785805e+00   5.3377387e+03
 9.9832602e+00   5.3488352e+03
 9.9879398e+00   5.3689147e+03
 9.9926205e+00   5.3613577e+03
 9.9973001e+00   5.3764897e+03
 1.0001980e+01   5.3654753e+03
 1.0006660e+01   5.3632361e+03
 1.0011340e+01   5.3538051e+03
 1.0016020e+01   5.3561858e+03
 1.0020700e+01   5.3439508e+03
 1.0025380e+01   5.3305842e+03
 1.0030060e+01   5.3201795e+03
 1.0034740e+01   5.3048296e+03
 1.0039420e+01   5.2990619e+03
 1.0044100e+01   5.2769513e+03
 1.0048780e+01   5.2805975e+03
 1.0053460e+01   5.2546623e+03
 1.0058140e+01   5.2603325e+03
 1.0062820e+01   5.2409278e+03
 1.0067500e+01   5.2568884e+03
 1.0072180e+01   5.2294423e+03
 1.0076860e+01   5.2440162e+03
 1.0081540e+01   5.2293478e+03
 1.0086220e+01   5.2351197e+03
 1.0090900e+01   5.2172838e+03
 1.0095580e+01   5.2279711e+03
 1.0100260e+01   5.2086260e+03
 1.0104940e+01   5.2170846e+03
 1.0109620e+01   5.2272375e+03
 1.0114300e+01   5.2167554e+03
 1.0118980e+01   5.2324545e+03
 1.0123660e+01   5.2279337e+03
 1.0128340e+01   5.2329392e+03
 1.0133020e+01   5.2295985e+03
 1.0137700e+01   5.2485989e+03
 1.0142380e+01   5.2529827e+03
 1.0147060e+01   5.2631706e+03
 1.0151740e+01   5.2670381e+03
 1.0156420e+01   5.2904442e+03
 1.0161100e+01   5.2991940e+03
 1.0165780e+01   5.3253267e+03
 1.0170460e+01   5.3460909e+03
 1.0175140e+01   5.3699019e+03
 1.0179820e+01   5.3929464e+03
 1.0184500e+01   5.4162055e+03
 1.0189180e+01   5.4280292e+03
 1.0193860e+01   5.4828939e+03
 1.0198540e+01   5.5050678e+03
 1.0203220e+01   5.5316082e+03
 1.0207900e+01   5.5844169e+03
 1.0212580e+01   5.6198572e+03
 1.0217260e+01   5.6561499e+03
 1.0221940e+01   5.6866122e+03
 1.0226620e+01   5.7180761e+03
 1.0231300e+01   5.7507716e+03
 1.0235980e+01   5.7867377e+03
 1.0240660e+01   5.7903147e+03
 1.0245340e+01   5.8164438e+03
 1.0250020e+01   5.8137990e+03
 1.0254700e+01   5.8477788e+03
 1.0259380e+01   5.8709479e+03
 1.0264060e+01   5.9444555e+03
 1.0268740e+01   6.0347369e+03
 1.0273420e+01   6.0774523e+03
 1.0278100e+01   5.9565875e+03
 1.0282780e+01   5.8903213e+03
 1.0287460e+01   6.0007317e+03
 1.0292140e+01   6.0890300e+03
 1.0296820e+01   6.1175119e+03
 1.0301500e+01   6.1580048e+03
 1.0306180e+01   6.1554605e+03
 1.0310860e+01   6.0355968e+03
 1.0315540e+01   5.9615786e+03
 1.0320220e+01   5.8186521e+03
 1.0324900e+01   5.9087262e+03
 1.0329580e+01   5.9981652e+03
 1.0334260e+01   5.7547476e+03
 1.0338940e+01   5.5594989e+03
 1.0343620e+01   5.4504027e+03
 1.0348300e+01   5.3894622e+03
 1.0352980e+01   5.3306618e+03
 1.0357660e+01   5.3133783e+03
 1.0362340e+01   5.2881311e+03
 1.0367020e+01   5.2792349e+03
 1.0371700e+01   5.2567524e+03
 1.0376380e+01   5.2632702e+03
 1.0381060e+01   5.2504471e+03
 1.0385740e+01   5.2657326e+03
 1.0390420e+01   5.2555294e+03
 1.0395100e+01   5.2662535e+03
 1.0399780e+01   5.2733965e+03
 1.0404460e+01   5.2782153e+03
 1.0409140e+01   5.3009214e+03
 1.0413820e+01   5.3109005e+03
 1.0418500e+01   5.3222898e+03
 1.0423180e+01   5.3209605e+03
 1.0427860e+01   5.3316621e+03
 1.0432540e+01   5.3520403e+03
 1.0437220e+01   5.3753579e+03
 1.0441900e+01   5.3876325e+03
 1.0446580e+01   5.4129173e+03
 1.0451260e+01   5.4224096e+03
 1.0455940e+01   5.4421790e+03
 1.0460620e+01   5.4550424e+03
 1.0465300e+01   5.4802158e+03
 1.0469980e+01   5.4888212e+03
 1.0474660e+01   5.4892920e+03
 1.0479340e+01   5.5171853e+03
 1.0484020e+01   5.5131608e+03
 1.0488700e+01   5.5118847e+03
 1.0493380e+01   5.5154339e+03
 1.0498060e+01   5.5037804e+03
 1.0502740e+01   5.5054729e+03
 1.0507420e+01   5.5018989e+03
 1.0512100e+01   5.4770195e+03
 1.0516780e+01   5.4656346e+03
 1.0521460e+01   5.4353769e+03
 1.0526140e+01   5.4272154e+03
 1.0530820e+01   5.4062754e+03
 1.0535500e+01   5.3909768e+03
 1.0540180e+01   5.3620093e+03
 1.0544860e+01   5.3620234e+03
 1.0549540e+01   5.3337634e+03
 1.0554220e+01   5.3178535e+03
 1.0558900e+01   5.3034987e+03
 1.0563580e+01   5.2785887e+03
 1.0568260e+01   5.2540234e+03
 1.0572940e+01   5.2378552e+03
 1.0577620e+01   5.2177822e+03
 1.0582300e+01   5.1949870e+03
 1.0586980e+01   5.1814708e+03
 1.0591660e+01   5.1587192e+03
 1.0596340e+01   5.1605211e+03
 1.0601020e+01   5.1412036e+03
 1.0605700e+01   5.1397092e+03
 1.0610380e+01   5.1234653e+03
 1.0615060e+01   5.1114483e+03
 1.0619740e+01   5.1056911e+03
 1.0624420e+01   5.1008562e+03
 1.0629100e+01   5.0982408e+03
 1.0633780e+01   5.0876301e+03
 1.0638460e+01   5.0728007e+03
 1.0643140e+01   5.0546232e+03
 1.0647820e+01   5.0551456e+03
 1.0652500e+01   5.0558643e+03
 1.0657180e+01   5.0553523e+03
 1.0661860e+01   5.0422489e+03
 1.0666540e+01   5.0422797e+03
 1.0671220e+01   5.0455560e+03
 1.0675900e+01   5.0379537e+03
 1.0680580e+01   5.0506041e+03
 1.0685260e+01   5.0413993e+03
 1.0689940e+01   5.0712794e+03
 1.0694620e+01   5.0628822e+03
 1.0699300e+01   5.0608357e+03
 1.0703980e+01   5.0724581e+03
 1.0708660e+01   5.0824127e+03
 1.0713340e+01   5.0859156e+03
 1.0718020e+01   5.0993429e+03
 1.0722700e+01   5.1111710e+03
 1.0727380e+01   5.1345649e+03
 1.0732060e+01   5.1284243e+03
 1.0736740e+01   5.1421575e+03
 1.0741420e+01   5.1566043e+03
 1.0746100e+01   5.1609461e+03
 1.0750780e+01   5.1763457e+03
 1.0755460e+01   5.1661252e+03
 1.0760140e+01   5.1665962e+03
 1.0764820e+01   5.1689986e+03
 1.0769500e+01   5.1718920e+03
 1.0774180e+01   5.1734682e+03
 1.0778860e+01   5.1771743e+03
 1.0783540e+01   5.1692343e+03
 1.0788220e+01   5.1739031e+03
 1.0792900e+01   5.1584146e+03
 1.0797580e+01   5.1563393e+03
 1.0802260e+01   5.1646619e+03
 1.0806940e+01   5.1691371e+03
 1.0811620e+01   5.1654304e+03
 1.0816300e+01   5.1545903e+03
 1.0820980e+01   5.1571406e+03
 1.0825660e+01   5.1431670e+03
 1.0830340e+01   5.1377839e+03
 1.0835020e+01   5.1342098e+03
 1.0839700e+01   5.1261956e+03
 1.0844380e+01   5.1207652e+03
 1.0849060e+01   5.1199953e+03
 1.0853740e+01   5.1050045e+03
 1.0858420e+01   5.0970789e+03
 1.0863100e+01   5.0841768e+03
 1.0867780e+01   5.0868033e+03
 1.0872460e+01   5.0577918e+03
 1.0877140e+01   5.0435955e+03
 1.0881820e+01   5.0349600e+03
 1.0886500e+01   5.0186465e+03
 1.0891180e+01   5.0022782e+03
 1.0895860e+01   4.9837681e+03
 1.0900540e+01   4.9755792e+03
 1.0905220e+01   4.9603806e+03
 1.0909900e+01   4.9608543e+03
 1.0914580e+01   4.9329470e+03
 1.0919260e+01   4.9277970e+03
 1.0923940e+01   4.9160154e+03
 1.0928620e+01   4.9113812e+03
 1.0933300e+01   4.9005769e+03
 1.0937980e+01   4.8952967e+03
 1.0942660e+01   4.8840578e+03
 1.0947340e+01   4.8743233e+03
 1.0952020e+01   4.8636016e+03
 1.0956700e+01   4.8495641e+03
 1.0961380e+01   4.8655633e+03
 1.0966060e+01   4.8435078e+03
 1.0970740e+01   4.8501433e+03
 1.0975420e+01   4.8427160e+03
 1.0980100e+01   4.8364792e+03
 1.0984780e+01   4.8212766e+03
 1.0989460e+01   4.8196509e+03
 1.0994140e+01   4.8092418e+03
 1.0998820e+01   4.8192058e+03
 1.1003500e+01   4.8060137e+03
 1.1008180e+01   4.7971293e+03
 1.1012860e+01   4.8164304e+03
 1.1017540e+01   4.7982744e+03
 1.1022220e+01   4.8124412e+03
 1.1026900e+01   4.8084579e+03
 1.1031580e+01   4.8051790e+03
 1.1036260e+01   4.8237609e+03
 1.1040940e+01   4.8227067e+03
 1.1045620e+01   4.8118349e+03
 1.1050300e+01   4.8197002e+03
 1.1054980e+01   4.8181407e+03
 1.1059660e+01   4.8369083e+03
 1.1064340e+01   4.8150877e+03
 1.1069020e+01   4.8170814e+03
 1.1073700e+01   4.8362653e+03
 1.1078380e+01   4.8287037e+03
 1.1083060e+01   4.8479925e+03
 1.1087740e+01   4.8441208e+03
 1.1092420e+01   4.8519763e+03
 1.1097100e+01   4.8597492e+03
 1.1101780e+01   4.8743841e+03
 1.1106460e+01   4.8670416e+03
 1.1111140e+01   4.8980792e+03
 1.1115820e+01   4.9022226e+03
 1.1120500e+01   4.9265729e+03
 1.1125180e+01   4.9229872e+03
 1.1129860e+01   4.9495269e+03
 1.1134540e+01   4.9547131e+03
 1.1139220e+01   4.9483403e+03
 1.1143900e+01   4.9567641e+03
 1.1148580e+01   4.9640418e+03
 1.1153260e+01   4.9765167e+03
 1.1157940e+01   4.9714256e+03
 1.1162620e+01   4.9673423e+03
 1.1167300e+01   4.9765302e+03
 1.1171980e+01   4.9820146e+03
 1.1176660e+01   4.9601957e+03
 1.1181340e+01   4.9671550e+03
 1.1186020e+01   4.9436405e+03
 1.1190700e+01   4.9566768e+03
 1.1195380e+01   4.9387989e+03
 1.1200060e+01   4.9180780e+03
 1.1204740e+01   4.9254183e+03
 1.1209420e+01   4.9167838e+03
 1.1214100e+01   4.9044201e+03
 1.1218780e+01   4.8833477e+03
 1.1223460e+01   4.8846572e+03
 1.1228140e+01   4.8665591e+03
 1.1232820e+01   4.8497033e+03
 1.1237500e+01   4.8298413e+03
 1.1242180e+01   4.8250796e+03
 1.1246860e+01   4.8025582e+03
 1.1251540e+01   4.7844917e+03
 1.1256220e+01   4.7706023e+03
 1.1260900e+01   4.7414607e+03
 1.1265580e+01   4.7243873e+03
 1.1270260e+01   4.7121979e+03
 1.1274940e+01   4.6937171e+03
 1.1279620e+01   4.6847901e+03
 1.1284300e+01   4.6825715e+03
 1.1288980e+01   4.6625271e+03
 1.1293660e+01   4.6639776e+03
 1.1298340e+01   4.6416218e+03
 1.1303020e+01   4.6429039e+03
 1.1307700e+01   4.6326238e+03
 1.1312380e+01   4.6247752e+03
 1.1317060e+01   4.6217683e+03
 1.1321740e+01   4.6142792e+03
 1.1326420e+01   4.6003943e+03
 1.1331100e+01   4.6128731e+03
 1.1335780e+01   4.5942545e+03
 1.1340460e+01   4.5899486e+03
 1.1345140e+01   4.5883565e+03
 1.1349820e+01   4.5743998e+03
 1.1354500e+01   4.5749286e+03
 1.1359180e+01   4.5702805e+03
 1.1363860e+01   4.5771074e+03
 1.1368540e+01   4.5644361e+03
 1.1373220e+01   4.5554123e+03
 1.1377900e+01   4.5580495e+03
 1.1382580e+01   4.5579165e+03
 1.1387260e+01   4.5547170e+03
 1.1391940e+01   4.5483459e+03
 1.1396620e+01   4.5352117e+03
 1.1401300e+01   4.5402504e+03
 1.1405980e+01   4.5355388e+03
 1.1410660e+01   4.5270305e+03
 1.1415340e+01   4.5327403e+03
 1.1420020e+01   4.5161001e+03
 1.1424700e+01   4.5195595e+03
 1.1429380e+01   4.5198771e+03
 1.1434060e+01   4.5085790e+03
 1.1438740e+01   4.5103911e+03
 1.1443420e+01   4.5074419e+03
 1.1448100e+01   4.5090327e+03
 1.1452780e+01   4.5055784e+03
 1.1457460e+01   4.4960770e+03
 1.1462140e+01   4.4969717e+03
 1.1466820e+01   4.5051719e+03
 1.1471500e+01   4.4777170e+03
 1.1476180e+01   4.4889796e+03
 1.1480860e+01   4.4850560e+03
 1.1485540e+01   4.4905716e+03
 1.1490220e+01   4.4852298e+03
 1.1494900e+01   4.4839738e+03
 1.1499580e+01   4.4753081e+03
 1.1504260e+01   4.4813536e+03
 1.1508940e+01   4.4698447e+03
 1.1513620e+01   4.4731987e+03
 1.1518300e+01   4.4694084e+03
 1.1522980e+01   4.4663577e+03
 1.1527660e+01   4.4666346e+03
 1.1532340e+01   4.4579034e+03
 1.1537020e+01   4.4720294e+03
 1.1541700e+01   4.4646255e+03
 1.1546380e+01   4.4569070e+03
 1.1551060e+01   4.4507411e+03
 1.1555740e+01   4.4567882e+03
 1.1560420e+01   4.4448826e+03
 1.1565100e+01   4.4457437e+03
 1.1569780e+01   4.4318155e+03
 1.1574460e+01   4.4443218e+03
 1.1579140e+01   4.4323142e+03
 1.1583820e+01   4.4366566e+03
 1.1588500e+01   4.4348299e+03
 1.1593180e+01   4.4289230e+03
 1.1597860e+01   4.4295862e+03
 1.1602540e+01   4.4285737e+03
 1.1607220e+01   4.4339715e+03
 1.1611900e+01   4.4347427e+03
 1.1616580e+01   4.4341580e+03
 1.1621260e+01   4.4327317e+03
 1.1625940e+01   4.4289447e+03
 1.1630620e+01   4.4261388e+03
 1.1635300e+01   4.4200334e+03
 1.1639980e+01   4.4208224e+03
 1.1644660e+01   4.4133601e+03
 1.1649340e+01   4.4141992e+03
 1.1654020e+01   4.4046557e+03
 1.1658700e+01   4.4100770e+03
 1.1663380e+01   4.4038272e+03
 1.1668060e+01   4.3958311e+03
 1.1672740e+01   4.4001622e+03
 1.1677420e+01   4.4001140e+03
 1.1682100e+01   4.3919226e+03
 1.1686780e+01   4.3878308e+03
 1.1691460e+01   4.3683726e+03
 1.1696140e+01   4.3882960e+03
 1.1700820e+01   4.3848252e+03
 1.1705500e+01   4.3800747e+03
 1.1710180e+01   4.3731748e+03
 1.1714860e+01   4.3784792e+03
 1.1719540e+01   4.3729975e+03
 1.1724220e+01   4.3735886e+03
 1.1728900e+01   4.3688558e+03
 1.1733580e+01   4.3631637e+03
 1.1738260e+01   4.3599257e+03
 1.1742940e+01   4.3737700e+03
 1.1747620e+01   4.3612107e+03
 1.1752300e+01   4.3647361e+03
 1.1756980e+01   4.3649477e+03
 1.1761660e+01   4.3670760e+03
 1.1766340e+01   4.3726770e+03
 1.1771020e+01   4.3695827e+03
 1.1775700e+01   4.3738049e+03
 1.1780380e+01   4.3755622e+03
 1.1785060e+01   4.3690308e+03
 1.1789740e+01   4.3733148e+03
 1.1794420e+01   4.3845685e+03
 1.1799100e+01   4.3703872e+03
 1.1803780e+01   4.3741064e+03
 1.1808460e+01   4.3782851e+03
 1.1813140e+01   4.3761450e+03
 1.1817820e+01   4.3854660e+03
 1.1822500e+01   4.3937128e+03
 1.1827180e+01   4.3919965e+03
 1.1831860e+01   4.4032738e+03
 1.1836540e+01   4.3979530e+03
 1.1841220e+01   4.4054380e+03
 1.1845900e+01   4.4221991e+03
 1.1850580e+01   4.4208996e+03
 1.1855260e+01   4.4507514e+03
 1.1859940e+01   4.4581140e+03
 1.1864620e+01   4.4855818e+03
 1.1869300e+01   4.5115026e+03
 1.1873980e+01   4.5476628e+03
 1.1878660e+01   4.5755167e+03
 1.1883340e+01   4.5804867e+03
 1.1888020e+01   4.6302016e+03
 1.1892700e+01   4.6590633e+03
 1.1897380e+01   4.7211736e+03
 1.1902060e+01   4.7407861e+03
 1.1906740e+01   4.7686027e+03
 1.1911420e+01   4.7555741e+03
 1.1916100e+01   4.7599731e+03
 1.1920780e+01   4.7251587e+03
 1.1925460e+01   4.7268921e+03
 1.1930140e+01   4.7132911e+03
 1.1934820e+01   4.7112443e+03
 1.1939500e+01   4.7169484e+03
 1.1944180e+01   4.6921866e+03
 1.1948860e+01   4.6730936e+03
 1.1953540e+01   4.6722585e+03
 1.1958220e+01   4.6813460e+03
 1.1962900e+01   4.6608458e+03
 1.1967580e+01   4.6771304e+03
 1.1972260e+01   4.6680148e+03
 1.1976940e+01   4.6820438e+03
 1.1981620e+01   4.6720715e+03
 1.1986300e+01   4.6621016e+03
 1.1990980e+01   4.6596707e+03
 1.1995660e+01   4.6423376e+03
 1.2000340e+01   4.6366510e+03
 1.2005020e+01   4.6273173e+03
 1.2009700e+01   4.6156234e+03
 1.2014380e+01   4.6014501e+03
 1.2019060e+01   4.5967187e+03
 1.2023740e+01   4.5736341e+03
 1.2028420e+01   4.5657817e+03
 1.2033100e+01   4.5396490e+03
 1.2037780e+01   4.5248306e+03
 1.2042460e+01   4.5070246e+03
 1.2047140e+01   4.4836514e+03
 1.2051820e+01   4.4819638e+03
 1.2056500e+01   4.4520230e+03
 1.2061180e+01   4.4474030e+03
 1.2065860e+01   4.4287028e+03
 1.2070540e+01   4.4216219e+03
 1.2075220e+01   4.4079631e+03
 1.2079900e+01   4.3947252e+03
 1.2084580e+01   4.3848793e+03
 1.2089260e+01   4.3768444e+03
 1.2093940e+01   4.3627406e+03
 1.2098620e+01   4.3455009e+03
 1.2103300e+01   4.3371890e+03
 1.2107980e+01   4.3373070e+03
 1.2112660e+01   4.3218371e+03
 1.2117340e+01   4.3083205e+03
 1.2122020e+01   4.3026159e+03
 1.2126700e+01   4.2870572e+03
 1.2131380e+01   4.2830751e+03
 1.2136060e+01   4.2620339e+03
 1.2140740e+01   4.2651918e+03
 1.2145420e+01   4.2420381e+03
 1.2150100e+01   4.2417521e+03
 1.2154780e+01   4.2260404e+03
 1.2159460e+01   4.2268692e+03
 1.2164140e+01   4.2125242e+03
 1.2168820e+01   4.2017186e+03
 1.2173500e+01   4.2062217e+03
 1.2178180e+01   4.1820688e+03
 1.2182860e+01   4.1775628e+03
 1.2187540e+01   4.1794903e+03
 1.2192220e+01   4.1625760e+03
 1.2196900e+01   4.1653021e+03
 1.2201580e+01   4.1651491e+03
 1.2206260e+01   4.1526542e+03
 1.2210940e+01   4.1627124e+03
 1.2215620e+01   4.1432521e+03
 1.2220300e+01   4.1514541e+03
 1.2224980e+01   4.1471750e+03
 1.2229660e+01   4.1301711e+03
 1.2234340e+01   4.1285789e+03
 1.2239020e+01   4.1349736e+03
 1.2243700e+01   4.1267587e+03
 1.2248380e+01   4.1157637e+03
 1.2253060e+01   4.1235033e+03
 1.2257740e+01   4.1198792e+03
 1.2262420e+01   4.1243091e+03
 1.2267100e+01   4.1106159e+03
 1.2271780e+01   4.1123397e+03
 1.2276460e+01   4.1222019e+03
 1.2281140e+01   4.1121266e+03
 1.2285820e+01   4.1078334e+03
 1.2290500e+01   4.1013079e+03
 1.2295180e+01   4.1089313e+03
 1.2299860e+01   4.0986736e+03
 1.2304540e+01   4.1096548e+03
 1.2309220e+01   4.1073627e+03
 1.2313900e+01   4.1048840e+03
 1.2318580e+01   4.1013779e+03
 1.2323260e+01   4.1003166e+03
 1.2327940e+01   4.1051902e+03
 1.2332620e+01   4.1082346e+03
 1.2337300e+01   4.1232651e+03
 1.2341980e+01   4.1105717e+03
 1.2346660e+01   4.1208442e+03
 1.2351340e+01   4.1225730e+03
 1.2356020e+01   4.1340714e+03
 1.2360700e+01   4.1284850e+03
 1.2365380e+01   4.1288204e+03
 1.2370060e+01   4.1429926e+03
 1.2374740e+01   4.1452138e+03
 1.2379420e+01   4.1542908e+03
 1.2384100e+01   4.1478957e+03
 1.2388780e+01   4.1594528e+03
 1.2393460e+01   4.1595786e+03
 1.2398140e+01   4.1615815e+03
 1.2402820e+01   4.1599663e+03
 1.2407500e+01   4.1631621e+03
 1.2412180e+01   4.1589825e+03
 1.2416860e+01   4.1679455e+03
 1.2421540e+01   4.1687791e+03
 1.2426220e+01   4.1694766e+03
 1.2430900e+01   4.1661674e+03
 1.2435580e+01   4.1712701e+03
 1.2440260e+01   4.1629297e+03
 1.2444940e+01   4.1740426e+03
 1.2449620e+01   4.1717813e+03
 1.2454300e+01   4.1527519e+03
 1.2458980e+01   4.1660463e+03
 1.2463660e+01   4.1479169e+03
 1.2468340e+01   4.1509974e+03
 1.2473020e+01   4.1408326e+03
 1.2477700e+01   4.1501454e+03
 1.2482380e+01   4.1331717e+03
 1.2487060e+01   4.1338337e+03
 1.2491740e+01   4.1220354e+03
 1.2496420e+01   4.1164500e+03
 1.2501100e+01   4.1117697e+03
 1.2505780e+01   4.1183933e+03
 1.2510460e+01   4.1128383e+03
 1.2515140e+01   4.1041836e+03
 1.2519820e+01   4.0999543e+03
 1.2524500e+01   4.0948465e+03
 1.2529180e+01   4.0879642e+03
 1.2533860e+01   4.0889055e+03
 1.2538540e+01   4.0804719e+03
 1.2543220e+01   4.0808693e+03
 1.2547900e+01   4.0798567e+03
 1.2552580e+01   4.0762955e+03
 1.2557260e+01   4.0782569e+03
 1.2561940e+01   4.0784270e+03
 1.2566620e+01   4.0735504e+03
 1.2571300e+01   4.0737303e+03
 1.2575980e+01   4.0682515e+03
 1.2580660e+01   4.0628414e+03
 1.2585340e+01   4.0750694e+03
 1.2590020e+01   4.0745842e+03
 1.2594700e+01   4.0761185e+03
 1.2599380e+01   4.0826879e+03
 1.2604060e+01   4.0835678e+03
 1.2608740e+01   4.0743492e+03
 1.2613420e+01   4.0884301e+03
 1.2618100e+01   4.0858315e+03
 1.2622780e+01   4.0970895e+03
 1.2627460e+01   4.0933446e+03
 1.2632140e+01   4.1049974e+03
 1.2636820e+01   4.1137516e+03
 1.2641500e+01   4.1192225e+03
 1.2646180e+01   4.1243625e+03
 1.2650860e+01   4.1284637e+03
 1.2655540e+01   4.1455717e+03
 1.2660220e+01   4.1626450e+03
 1.2664900e+01   4.1677986e+03
 1.2669580e+01   4.1771889e+03
 1.2674260e+01   4.1836805e+03
 1.2678940e+01   4.1919901e+03
 1.2683620e+01   4.2037603e+03
 1.2688300e+01   4.2147875e+03
 1.2692980e+01   4.2265350e+03
 1.2697660e+01   4.2378436e+03
