MA2b-00002.tif Azm= 0.00
2-Theta Angle (Degrees)
Intensity
       2500
 1.0023400e+00   7.8851572e+03
 1.0070200e+00   7.8958918e+03
 1.0117000e+00   7.8283256e+03
 1.0163800e+00   7.8217736e+03
 1.0210600e+00   7.8000709e+03
 1.0257400e+00   7.7665928e+03
 1.0304199e+00   7.7650765e+03
 1.0351000e+00   7.7388582e+03
 1.0397800e+00   7.7226616e+03
 1.0444601e+00   7.6732727e+03
 1.0491400e+00   7.5865635e+03
 1.0538200e+00   7.6425207e+03
 1.0585001e+00   7.5759690e+03
 1.0631800e+00   7.5743608e+03
 1.0678600e+00   7.5478392e+03
 1.0725400e+00   7.5235966e+03
 1.0772200e+00   7.4939813e+03
 1.0819000e+00   7.5208192e+03
 1.0865800e+00   7.4707975e+03
 1.0912600e+00   7.4665775e+03
 1.0959400e+00   7.4534378e+03
 1.1006200e+00   7.4305570e+03
 1.1052999e+00   7.4218487e+03
 1.1099800e+00   7.3674076e+03
 1.1146600e+00   7.3705851e+03
 1.1193399e+00   7.3091754e+03
 1.1240200e+00   7.3187780e+03
 1.1287000e+00   7.3077080e+03
 1.1333801e+00   7.3323528e+03
 1.1380600e+00   7.2635426e+03
 1.1427400e+00   7.2559454e+03
 1.1474200e+00   7.2318204e+03
 1.1521000e+00   7.2572282e+03
 1.1567800e+00   7.2246559e+03
 1.1614600e+00   7.2182995e+03
 1.1661400e+00   7.2185831e+03
 1.1708200e+00   7.2311449e+03
 1.1755000e+00   7.1904982e+03
 1.1801800e+00   7.1957227e+03
 1.1848600e+00   7.1673367e+03
 1.1895400e+00   7.1765916e+03
 1.1942199e+00   7.1536087e+03
 1.1989000e+00   7.1586247e+03
 1.2035800e+00   7.1259234e+03
 1.2082601e+00   7.1748827e+03
 1.2129400e+00   7.1352311e+03
 1.2176200e+00   7.1269554e+03
 1.2223001e+00   7.1305436e+03
 1.2269800e+00   7.0876382e+03
 1.2316600e+00   7.0911997e+03
 1.2363400e+00   7.1203443e+03
 1.2410200e+00   7.0839971e+03
 1.2457000e+00   7.0944388e+03
 1.2503800e+00   7.0867104e+03
 1.2550600e+00   7.0742715e+03
 1.2597400e+00   7.1013256e+03
 1.2644200e+00   7.0851651e+03
 1.2691000e+00   7.0898509e+03
 1.2737800e+00   7.0646948e+03
 1.2784600e+00   7.0834879e+03
 1.2831399e+00   7.1001175e+03
 1.2878200e+00   7.1018233e+03
 1.2925000e+00   7.1003611e+03
 1.2971801e+00   7.0862423e+03
 1.3018600e+00   7.0963599e+03
 1.3065400e+00   7.1025092e+03
 1.3112200e+00   7.1031493e+03
 1.3159000e+00   7.1074399e+03
 1.3205800e+00   7.1197145e+03
 1.3252600e+00   7.1007272e+03
 1.3299400e+00   7.1077782e+03
 1.3346200e+00   7.1428943e+03
 1.3393000e+00   7.1329818e+03
 1.3439800e+00   7.1451200e+03
 1.3486600e+00   7.1381256e+03
 1.3533400e+00   7.1336079e+03
 1.3580199e+00   7.1425266e+03
 1.3627000e+00   7.1402705e+03
 1.3673800e+00   7.1847430e+03
 1.3720599e+00   7.1776877e+03
 1.3767400e+00   7.1601459e+03
 1.3814200e+00   7.1841340e+03
 1.3861001e+00   7.2024159e+03
 1.3907800e+00   7.2253284e+03
 1.3954600e+00   7.2283784e+03
 1.4001400e+00   7.2254615e+03
 1.4048200e+00   7.2615623e+03
 1.4095000e+00   7.2382722e+03
 1.4141800e+00   7.2748665e+03
 1.4188600e+00   7.2814048e+03
 1.4235400e+00   7.2883253e+03
 1.4282200e+00   7.3296028e+03
 1.4329000e+00   7.3648289e+03
 1.4375800e+00   7.3749490e+03
 1.4422600e+00   7.3945491e+03
 1.4469399e+00   7.4140188e+03
 1.4516200e+00   7.4627598e+03
 1.4563000e+00   7.4753635e+03
 1.4609801e+00   7.5023864e+03
 1.4656600e+00   7.5420825e+03
 1.4703400e+00   7.5191288e+03
 1.4750201e+00   7.5943011e+03
 1.4797000e+00   7.5981451e+03
 1.4843800e+00   7.6241549e+03
 1.4890600e+00   7.6383203e+03
 1.4937400e+00   7.6692638e+03
 1.4984200e+00   7.6950055e+03
 1.5031000e+00   7.7102330e+03
 1.5077800e+00   7.7164115e+03
 1.5124600e+00   7.7488850e+03
 1.5171400e+00   7.7469659e+03
 1.5218199e+00   7.7586647e+03
 1.5265000e+00   7.7352121e+03
 1.5311800e+00   7.7678606e+03
 1.5358599e+00   7.7176158e+03
 1.5405400e+00   7.7390507e+03
 1.5452200e+00   7.7195251e+03
 1.5499001e+00   7.7106123e+03
 1.5545800e+00   7.7253376e+03
 1.5592600e+00   7.7188858e+03
 1.5639400e+00   7.6854699e+03
 1.5686200e+00   7.6856632e+03
 1.5733000e+00   7.6963284e+03
 1.5779800e+00   7.7008685e+03
 1.5826600e+00   7.6638309e+03
 1.5873400e+00   7.6888321e+03
 1.5920200e+00   7.6675309e+03
 1.5967000e+00   7.6811810e+03
 1.6013800e+00   7.6685758e+03
 1.6060600e+00   7.6813634e+03
 1.6107399e+00   7.6599308e+03
 1.6154200e+00   7.6810297e+03
 1.6201000e+00   7.6604639e+03
 1.6247801e+00   7.6605424e+03
 1.6294600e+00   7.7013759e+03
 1.6341400e+00   7.6739834e+03
 1.6388201e+00   7.6500823e+03
 1.6435000e+00   7.6632628e+03
 1.6481800e+00   7.6745019e+03
 1.6528600e+00   7.6725860e+03
 1.6575400e+00   7.6885653e+03
 1.6622200e+00   7.6681880e+03
 1.6669000e+00   7.7064606e+03
 1.6715800e+00   7.6789833e+03
 1.6762600e+00   7.6825668e+03
 1.6809400e+00   7.6859285e+03
 1.6856200e+00   7.6878517e+03
 1.6903000e+00   7.6689117e+03
 1.6949800e+00   7.6824613e+03
 1.6996599e+00   7.6779108e+03
 1.7043400e+00   7.7102709e+03
 1.7090200e+00   7.7039858e+03
 1.7137001e+00   7.6811701e+03
 1.7183800e+00   7.7287365e+03
 1.7230600e+00   7.7050365e+03
 1.7277400e+00   7.6961710e+03
 1.7324200e+00   7.7240401e+03
 1.7371000e+00   7.7051407e+03
 1.7417800e+00   7.7467291e+03
 1.7464600e+00   7.6966042e+03
 1.7511400e+00   7.7162070e+03
 1.7558200e+00   7.7195170e+03
 1.7605000e+00   7.7362218e+03
 1.7651800e+00   7.7408145e+03
 1.7698600e+00   7.7708918e+03
 1.7745399e+00   7.7546209e+03
 1.7792200e+00   7.7772698e+03
 1.7839000e+00   7.7949322e+03
 1.7885799e+00   7.7880011e+03
 1.7932600e+00   7.8182168e+03
 1.7979400e+00   7.8287397e+03
 1.8026201e+00   7.8369892e+03
 1.8073000e+00   7.8455893e+03
 1.8119800e+00   7.8952238e+03
 1.8166600e+00   7.8954210e+03
 1.8213400e+00   7.9318452e+03
 1.8260200e+00   7.9265213e+03
 1.8307000e+00   7.9541111e+03
 1.8353800e+00   7.9669689e+03
 1.8400600e+00   7.9869649e+03
 1.8447400e+00   8.0074307e+03
 1.8494200e+00   8.0027128e+03
 1.8541000e+00   8.0087877e+03
 1.8587800e+00   8.0773357e+03
 1.8634599e+00   8.0607778e+03
 1.8681400e+00   8.0948056e+03
 1.8728200e+00   8.1211475e+03
 1.8775001e+00   8.1348586e+03
 1.8821800e+00   8.1316625e+03
 1.8868600e+00   8.1659141e+03
 1.8915401e+00   8.1903408e+03
 1.8962200e+00   8.1923974e+03
 1.9009000e+00   8.2353989e+03
 1.9055800e+00   8.2469729e+03
 1.9102600e+00   8.2890338e+03
 1.9149400e+00   8.3014537e+03
 1.9196200e+00   8.3336202e+03
 1.9243000e+00   8.3689016e+03
 1.9289800e+00   8.3854319e+03
 1.9336600e+00   8.4260785e+03
 1.9383399e+00   8.4140663e+03
 1.9430200e+00   8.4565085e+03
 1.9477000e+00   8.4885065e+03
 1.9523799e+00   8.5009501e+03
 1.9570600e+00   8.5144112e+03
 1.9617400e+00   8.5428880e+03
 1.9664201e+00   8.5614714e+03
 1.9711000e+00   8.5863263e+03
 1.9757800e+00   8.6231442e+03
 1.9804600e+00   8.6402158e+03
 1.9851400e+00   8.6611920e+03
 1.9898200e+00   8.6955848e+03
 1.9945000e+00   8.6965146e+03
 1.9991800e+00   8.7196935e+03
 2.0038600e+00   8.7991002e+03
 2.0085399e+00   8.7740901e+03
 2.0132201e+00   8.8353762e+03
 2.0179000e+00   8.8539199e+03
 2.0225799e+00   8.8593200e+03
 2.0272601e+00   8.8936040e+03
 2.0319400e+00   8.9446062e+03
 2.0366199e+00   8.9526485e+03
 2.0413001e+00   8.9550646e+03
 2.0459800e+00   8.9892520e+03
 2.0506599e+00   9.0176483e+03
 2.0553401e+00   9.0620032e+03
 2.0600200e+00   9.0846772e+03
 2.0646999e+00   9.1284478e+03
 2.0693800e+00   9.1828957e+03
 2.0740600e+00   9.2101212e+03
 2.0787399e+00   9.2640265e+03
 2.0834200e+00   9.3345767e+03
 2.0881000e+00   9.4078945e+03
 2.0927801e+00   9.5074058e+03
 2.0974600e+00   9.6251545e+03
 2.1021399e+00   9.7611145e+03
 2.1068201e+00   9.9590676e+03
 2.1115000e+00   1.0215825e+04
 2.1161799e+00   1.0566879e+04
 2.1208601e+00   1.1058778e+04
 2.1255400e+00   1.1762823e+04
 2.1302199e+00   1.2770052e+04
 2.1349001e+00   1.3995457e+04
 2.1395800e+00   1.5497718e+04
 2.1442599e+00   1.7160549e+04
 2.1489401e+00   1.8954364e+04
 2.1536200e+00   2.0536454e+04
 2.1582999e+00   2.1949128e+04
 2.1629801e+00   2.3073634e+04
 2.1676600e+00   2.3966878e+04
 2.1723399e+00   2.4446285e+04
 2.1770201e+00   2.4541864e+04
 2.1817000e+00   2.4258282e+04
 2.1863799e+00   2.3522943e+04
 2.1910601e+00   2.2531822e+04
 2.1957400e+00   2.1371223e+04
 2.2004199e+00   2.0044958e+04
 2.2051001e+00   1.8817742e+04
 2.2097800e+00   1.7676123e+04
 2.2144599e+00   1.6752660e+04
 2.2191401e+00   1.5935273e+04
 2.2238200e+00   1.5337963e+04
 2.2284999e+00   1.4825002e+04
 2.2331800e+00   1.4454528e+04
 2.2378600e+00   1.4046318e+04
 2.2425399e+00   1.3669539e+04
 2.2472200e+00   1.3265882e+04
 2.2519000e+00   1.2831085e+04
 2.2565801e+00   1.2323155e+04
 2.2612600e+00   1.1892946e+04
 2.2659400e+00   1.1511026e+04
 2.2706201e+00   1.1195513e+04
 2.2753000e+00   1.0943329e+04
 2.2799799e+00   1.0783739e+04
 2.2846601e+00   1.0644710e+04
 2.2893400e+00   1.0566592e+04
 2.2940199e+00   1.0516554e+04
 2.2987001e+00   1.0505685e+04
 2.3033800e+00   1.0503383e+04
 2.3080599e+00   1.0490891e+04
 2.3127401e+00   1.0493956e+04
 2.3174200e+00   1.0506015e+04
 2.3220999e+00   1.0525853e+04
 2.3267801e+00   1.0546046e+04
 2.3314600e+00   1.0552110e+04
 2.3361399e+00   1.0584272e+04
 2.3408201e+00   1.0605249e+04
 2.3455000e+00   1.0642431e+04
 2.3501799e+00   1.0650499e+04
 2.3548601e+00   1.0692334e+04
 2.3595400e+00   1.0725721e+04
 2.3642199e+00   1.0735051e+04
 2.3689001e+00   1.0739852e+04
 2.3735800e+00   1.0795790e+04
 2.3782599e+00   1.0839263e+04
 2.3829401e+00   1.0861135e+04
 2.3876200e+00   1.0900704e+04
 2.3922999e+00   1.0927661e+04
 2.3969800e+00   1.0957711e+04
 2.4016600e+00   1.0996577e+04
 2.4063399e+00   1.1034363e+04
 2.4110200e+00   1.1062222e+04
 2.4157000e+00   1.1104402e+04
 2.4203801e+00   1.1150189e+04
 2.4250600e+00   1.1170235e+04
 2.4297400e+00   1.1216392e+04
 2.4344201e+00   1.1232666e+04
 2.4391000e+00   1.1282183e+04
 2.4437799e+00   1.1302391e+04
 2.4484601e+00   1.1346270e+04
 2.4531400e+00   1.1376928e+04
 2.4578199e+00   1.1420193e+04
 2.4625001e+00   1.1458773e+04
 2.4671800e+00   1.1478927e+04
 2.4718599e+00   1.1544350e+04
 2.4765401e+00   1.1576608e+04
 2.4812200e+00   1.1592620e+04
 2.4858999e+00   1.1649533e+04
 2.4905801e+00   1.1669505e+04
 2.4952600e+00   1.1716618e+04
 2.4999399e+00   1.1759022e+04
 2.5046201e+00   1.1790158e+04
 2.5093000e+00   1.1822638e+04
 2.5139799e+00   1.1857606e+04
 2.5186601e+00   1.1901971e+04
 2.5233400e+00   1.1959331e+04
 2.5280199e+00   1.1986058e+04
 2.5327001e+00   1.1997930e+04
 2.5373800e+00   1.2041901e+04
 2.5420599e+00   1.2068199e+04
 2.5467401e+00   1.2109135e+04
 2.5514200e+00   1.2139861e+04
 2.5560999e+00   1.2181148e+04
 2.5607800e+00   1.2202350e+04
 2.5654600e+00   1.2237141e+04
 2.5701399e+00   1.2292603e+04
 2.5748200e+00   1.2297330e+04
 2.5795000e+00   1.2341721e+04
 2.5841801e+00   1.2359458e+04
 2.5888600e+00   1.2405417e+04
 2.5935400e+00   1.2401149e+04
 2.5982201e+00   1.2451120e+04
 2.6029000e+00   1.2474218e+04
 2.6075799e+00   1.2470026e+04
 2.6122601e+00   1.2514848e+04
 2.6169400e+00   1.2552151e+04
 2.6216199e+00   1.2559520e+04
 2.6263001e+00   1.2595039e+04
 2.6309800e+00   1.2594503e+04
 2.6356599e+00   1.2637965e+04
 2.6403401e+00   1.2627004e+04
 2.6450200e+00   1.2650137e+04
 2.6496999e+00   1.2661777e+04
 2.6543801e+00   1.2699665e+04
 2.6590600e+00   1.2688275e+04
 2.6637399e+00   1.2740926e+04
 2.6684201e+00   1.2730904e+04
 2.6731000e+00   1.2719241e+04
 2.6777799e+00   1.2749319e+04
 2.6824601e+00   1.2739534e+04
 2.6871400e+00   1.2768245e+04
 2.6918199e+00   1.2795511e+04
 2.6965001e+00   1.2770942e+04
 2.7011800e+00   1.2787700e+04
 2.7058599e+00   1.2796544e+04
 2.7105401e+00   1.2808906e+04
 2.7152200e+00   1.2812399e+04
 2.7198999e+00   1.2828949e+04
 2.7245800e+00   1.2841354e+04
 2.7292600e+00   1.2835764e+04
 2.7339399e+00   1.2826961e+04
 2.7386200e+00   1.2831342e+04
 2.7433000e+00   1.2843243e+04
 2.7479801e+00   1.2844525e+04
 2.7526600e+00   1.2827536e+04
 2.7573400e+00   1.2810067e+04
 2.7620201e+00   1.2803683e+04
 2.7667000e+00   1.2809416e+04
 2.7713799e+00   1.2790128e+04
 2.7760601e+00   1.2799247e+04
 2.7807400e+00   1.2775675e+04
 2.7854199e+00   1.2760175e+04
 2.7901001e+00   1.2761022e+04
 2.7947800e+00   1.2737657e+04
 2.7994599e+00   1.2755698e+04
 2.8041401e+00   1.2724074e+04
 2.8088200e+00   1.2704068e+04
 2.8134999e+00   1.2709999e+04
 2.8181801e+00   1.2698509e+04
 2.8228600e+00   1.2661680e+04
 2.8275399e+00   1.2659634e+04
 2.8322201e+00   1.2640073e+04
 2.8369000e+00   1.2610630e+04
 2.8415799e+00   1.2598216e+04
 2.8462601e+00   1.2585252e+04
 2.8509400e+00   1.2569330e+04
 2.8556199e+00   1.2555223e+04
 2.8603001e+00   1.2549914e+04
 2.8649800e+00   1.2546429e+04
 2.8696599e+00   1.2509150e+04
 2.8743401e+00   1.2498101e+04
 2.8790200e+00   1.2495016e+04
 2.8836999e+00   1.2469098e+04
 2.8883801e+00   1.2447583e+04
 2.8930600e+00   1.2455953e+04
 2.8977399e+00   1.2404225e+04
 2.9024200e+00   1.2408872e+04
 2.9071000e+00   1.2401418e+04
 2.9117801e+00   1.2349724e+04
 2.9164600e+00   1.2350595e+04
 2.9211400e+00   1.2312279e+04
 2.9258201e+00   1.2321014e+04
 2.9305000e+00   1.2290152e+04
 2.9351799e+00   1.2277778e+04
 2.9398601e+00   1.2233864e+04
 2.9445400e+00   1.2238886e+04
 2.9492199e+00   1.2189527e+04
 2.9539001e+00   1.2204198e+04
 2.9585800e+00   1.2161299e+04
 2.9632599e+00   1.2149576e+04
 2.9679401e+00   1.2111150e+04
 2.9726200e+00   1.2094539e+04
 2.9772999e+00   1.2077397e+04
 2.9819801e+00   1.2053729e+04
 2.9866600e+00   1.2008802e+04
 2.9913399e+00   1.1994967e+04
 2.9960201e+00   1.1974349e+04
 3.0007000e+00   1.1930433e+04
 3.0053799e+00   1.1940060e+04
 3.0100601e+00   1.1897931e+04
 3.0147400e+00   1.1885727e+04
 3.0194199e+00   1.1860050e+04
 3.0241001e+00   1.1821201e+04
 3.0287800e+00   1.1811335e+04
 3.0334599e+00   1.1776150e+04
 3.0381401e+00   1.1747463e+04
 3.0428200e+00   1.1717585e+04
 3.0474999e+00   1.1693712e+04
 3.0521801e+00   1.1652671e+04
 3.0568600e+00   1.1641270e+04
 3.0615399e+00   1.1616330e+04
 3.0662200e+00   1.1555485e+04
 3.0709000e+00   1.1541709e+04
 3.0755799e+00   1.1521581e+04
 3.0802600e+00   1.1487872e+04
 3.0849400e+00   1.1481878e+04
 3.0896201e+00   1.1436812e+04
 3.0943000e+00   1.1420883e+04
 3.0989799e+00   1.1381109e+04
 3.1036601e+00   1.1368670e+04
 3.1083400e+00   1.1346933e+04
 3.1130199e+00   1.1329977e+04
 3.1177001e+00   1.1318486e+04
 3.1223800e+00   1.1299809e+04
 3.1270599e+00   1.1262076e+04
 3.1317401e+00   1.1257324e+04
 3.1364200e+00   1.1240187e+04
 3.1410999e+00   1.1215480e+04
 3.1457801e+00   1.1187015e+04
 3.1504600e+00   1.1156406e+04
 3.1551399e+00   1.1148784e+04
 3.1598201e+00   1.1140852e+04
 3.1645000e+00   1.1109080e+04
 3.1691799e+00   1.1094766e+04
 3.1738601e+00   1.1077924e+04
 3.1785400e+00   1.1049600e+04
 3.1832199e+00   1.1040612e+04
 3.1879001e+00   1.1044557e+04
 3.1925800e+00   1.1019116e+04
 3.1972599e+00   1.1021960e+04
 3.2019401e+00   1.0996478e+04
 3.2066200e+00   1.1002722e+04
 3.2112999e+00   1.0962455e+04
 3.2159801e+00   1.0944342e+04
 3.2206600e+00   1.0920611e+04
 3.2253399e+00   1.0936323e+04
 3.2300200e+00   1.0900965e+04
 3.2347000e+00   1.0894188e+04
 3.2393799e+00   1.0860282e+04
 3.2440600e+00   1.0854510e+04
 3.2487400e+00   1.0854094e+04
 3.2534201e+00   1.0839628e+04
 3.2581000e+00   1.0825328e+04
 3.2627800e+00   1.0818114e+04
 3.2674601e+00   1.0795311e+04
 3.2721400e+00   1.0797131e+04
 3.2768199e+00   1.0780894e+04
 3.2815001e+00   1.0755566e+04
 3.2861800e+00   1.0752748e+04
 3.2908599e+00   1.0735814e+04
 3.2955401e+00   1.0760875e+04
 3.3002200e+00   1.0739715e+04
 3.3048999e+00   1.0733138e+04
 3.3095801e+00   1.0734056e+04
 3.3142600e+00   1.0757372e+04
 3.3189399e+00   1.0695910e+04
 3.3236201e+00   1.0731257e+04
 3.3283000e+00   1.0705750e+04
 3.3329799e+00   1.0693584e+04
 3.3376601e+00   1.0700297e+04
 3.3423400e+00   1.0704222e+04
 3.3470199e+00   1.0690541e+04
 3.3517001e+00   1.0703874e+04
 3.3563800e+00   1.0675406e+04
 3.3610599e+00   1.0722937e+04
 3.3657401e+00   1.0703836e+04
 3.3704200e+00   1.0670531e+04
 3.3750999e+00   1.0687174e+04
 3.3797801e+00   1.0678717e+04
 3.3844600e+00   1.0670436e+04
 3.3891399e+00   1.0679608e+04
 3.3938200e+00   1.0678878e+04
 3.3985000e+00   1.0697838e+04
 3.4031799e+00   1.0686575e+04
 3.4078600e+00   1.0667589e+04
 3.4125400e+00   1.0684668e+04
 3.4172201e+00   1.0677093e+04
 3.4219000e+00   1.0671532e+04
 3.4265800e+00   1.0701283e+04
 3.4312601e+00   1.0687014e+04
 3.4359400e+00   1.0694540e+04
 3.4406199e+00   1.0713665e+04
 3.4453001e+00   1.0684092e+04
 3.4499800e+00   1.0722369e+04
 3.4546599e+00   1.0724891e+04
 3.4593401e+00   1.0698319e+04
 3.4640200e+00   1.0720505e+04
 3.4686999e+00   1.0716358e+04
 3.4733801e+00   1.0698576e+04
 3.4780600e+00   1.0733208e+04
 3.4827399e+00   1.0729435e+04
 3.4874201e+00   1.0703394e+04
 3.4921000e+00   1.0695978e+04
 3.4967799e+00   1.0681206e+04
 3.5014601e+00   1.0703417e+04
 3.5061400e+00   1.0713507e+04
 3.5108199e+00   1.0661293e+04
 3.5155001e+00   1.0739982e+04
 3.5201800e+00   1.0690407e+04
 3.5248599e+00   1.0680072e+04
 3.5295401e+00   1.0693131e+04
 3.5342200e+00   1.0678310e+04
 3.5388999e+00   1.0693205e+04
 3.5435801e+00   1.0697539e+04
 3.5482600e+00   1.0669760e+04
 3.5529399e+00   1.0708508e+04
 3.5576200e+00   1.0687873e+04
 3.5623000e+00   1.0657824e+04
 3.5669799e+00   1.0716493e+04
 3.5716600e+00   1.0676399e+04
 3.5763400e+00   1.0676337e+04
 3.5810201e+00   1.0713442e+04
 3.5857000e+00   1.0663411e+04
 3.5903800e+00   1.0702258e+04
 3.5950601e+00   1.0712937e+04
 3.5997400e+00   1.0664730e+04
 3.6044199e+00   1.0701093e+04
 3.6091001e+00   1.0694932e+04
 3.6137800e+00   1.0619646e+04
 3.6184599e+00   1.0701215e+04
 3.6231401e+00   1.0625230e+04
 3.6278200e+00   1.0653854e+04
 3.6324999e+00   1.0676421e+04
 3.6371801e+00   1.0608360e+04
 3.6418600e+00   1.0652421e+04
 3.6465399e+00   1.0657628e+04
 3.6512201e+00   1.0573041e+04
 3.6559000e+00   1.0685198e+04
 3.6605799e+00   1.0603190e+04
 3.6652601e+00   1.0589618e+04
 3.6699400e+00   1.0634286e+04
 3.6746199e+00   1.0504393e+04
 3.6793001e+00   1.0524066e+04
 3.6839800e+00   1.0550331e+04
 3.6886599e+00   1.0454573e+04
 3.6933401e+00   1.0530121e+04
 3.6980200e+00   1.0481895e+04
 3.7026999e+00   1.0391390e+04
 3.7073801e+00   1.0457828e+04
 3.7120600e+00   1.0360660e+04
 3.7167399e+00   1.0295636e+04
 3.7214200e+00   1.0336605e+04
 3.7261000e+00   1.0213140e+04
 3.7307799e+00   1.0266374e+04
 3.7354600e+00   1.0203241e+04
 3.7401400e+00   1.0091371e+04
 3.7448201e+00   1.0136049e+04
 3.7495000e+00   1.0088376e+04
 3.7541800e+00   9.9718030e+03
 3.7588601e+00   1.0035932e+04
 3.7635400e+00   9.9138973e+03
 3.7682199e+00   9.9666602e+03
 3.7729001e+00   9.8957546e+03
 3.7775800e+00   9.8283573e+03
 3.7822599e+00   9.7832606e+03
 3.7869401e+00   9.8402674e+03
 3.7916200e+00   9.6271983e+03
 3.7962999e+00   9.7827485e+03
 3.8009801e+00   9.6295861e+03
 3.8056600e+00   9.6042636e+03
 3.8103399e+00   9.6252662e+03
 3.8150201e+00   9.5420145e+03
 3.8197000e+00   9.5551583e+03
 3.8243799e+00   9.5686634e+03
 3.8290601e+00   9.4698495e+03
 3.8337400e+00   9.5219227e+03
 3.8384199e+00   9.4392770e+03
 3.8431001e+00   9.3172416e+03
 3.8477800e+00   9.4403605e+03
 3.8524599e+00   9.3432819e+03
 3.8571401e+00   9.3508988e+03
 3.8618200e+00   9.2915584e+03
 3.8664999e+00   9.2413856e+03
 3.8711801e+00   9.2726087e+03
 3.8758600e+00   9.2373788e+03
 3.8805399e+00   9.1469641e+03
 3.8852201e+00   9.2149831e+03
 3.8899000e+00   9.1151588e+03
 3.8945799e+00   9.0690519e+03
 3.8992600e+00   9.1072196e+03
 3.9039400e+00   9.0498813e+03
 3.9086201e+00   8.9777452e+03
 3.9133000e+00   9.0221673e+03
 3.9179800e+00   8.8961200e+03
 3.9226601e+00   8.9132977e+03
 3.9273400e+00   8.9399489e+03
 3.9320199e+00   8.8527515e+03
 3.9367001e+00   8.8296127e+03
 3.9413800e+00   8.8088622e+03
 3.9460599e+00   8.7589900e+03
 3.9507401e+00   8.7927817e+03
 3.9554200e+00   8.7709651e+03
 3.9600999e+00   8.7100037e+03
 3.9647801e+00   8.6556371e+03
 3.9694600e+00   8.6715583e+03
 3.9741399e+00   8.5953082e+03
 3.9788201e+00   8.6513498e+03
 3.9835000e+00   8.5718539e+03
 3.9881799e+00   8.5514049e+03
 3.9928601e+00   8.5079762e+03
 3.9975400e+00   8.4743568e+03
 4.0022202e+00   8.5009038e+03
 4.0068998e+00   8.4098260e+03
 4.0115800e+00   8.4639195e+03
 4.0162601e+00   8.4240453e+03
 4.0209398e+00   8.3382332e+03
 4.0256200e+00   8.3669815e+03
 4.0303001e+00   8.3828625e+03
 4.0349798e+00   8.3293435e+03
 4.0396600e+00   8.3920074e+03
 4.0443401e+00   8.2622568e+03
 4.0490198e+00   8.2945550e+03
 4.0537000e+00   8.2934959e+03
 4.0583801e+00   8.2574387e+03
 4.0630598e+00   8.2231585e+03
 4.0677400e+00   8.2387363e+03
 4.0724201e+00   8.1746133e+03
 4.0770998e+00   8.1826280e+03
 4.0817800e+00   8.1567772e+03
 4.0864601e+00   8.1392433e+03
 4.0911398e+00   8.2007033e+03
 4.0958200e+00   8.0857307e+03
 4.1005001e+00   8.1372890e+03
 4.1051798e+00   8.0823804e+03
 4.1098599e+00   8.0528389e+03
 4.1145401e+00   8.1277664e+03
 4.1192198e+00   8.0509477e+03
 4.1238999e+00   7.9683778e+03
 4.1285801e+00   8.0894302e+03
 4.1332598e+00   7.9767289e+03
 4.1379399e+00   8.0075374e+03
 4.1426201e+00   7.9853865e+03
 4.1472998e+00   7.9176180e+03
 4.1519799e+00   7.9430635e+03
 4.1566601e+00   7.9647529e+03
 4.1613402e+00   7.8589383e+03
 4.1660199e+00   7.9683706e+03
 4.1707001e+00   7.8636952e+03
 4.1753802e+00   7.8777630e+03
 4.1800599e+00   7.8848608e+03
 4.1847401e+00   7.8224304e+03
 4.1894202e+00   7.8884614e+03
 4.1940999e+00   7.8489233e+03
 4.1987801e+00   7.8155427e+03
 4.2034602e+00   7.8810722e+03
 4.2081399e+00   7.8001417e+03
 4.2128201e+00   7.8134800e+03
 4.2175002e+00   7.9158097e+03
 4.2221799e+00   7.8008879e+03
 4.2268600e+00   7.8179295e+03
 4.2315402e+00   7.8430971e+03
 4.2362199e+00   7.7351623e+03
 4.2409000e+00   7.8178833e+03
 4.2455802e+00   7.8530232e+03
 4.2502599e+00   7.7451506e+03
 4.2549400e+00   7.8800818e+03
 4.2596202e+00   7.8781628e+03
 4.2642999e+00   7.9401447e+03
 4.2689800e+00   7.9874172e+03
 4.2736602e+00   8.0290735e+03
 4.2783399e+00   8.0917645e+03
 4.2830200e+00   8.1931880e+03
 4.2877002e+00   8.2281574e+03
 4.2923799e+00   8.3635588e+03
 4.2970600e+00   8.4481545e+03
 4.3017402e+00   8.5050184e+03
 4.3064198e+00   8.5856131e+03
 4.3111000e+00   8.5747764e+03
 4.3157802e+00   8.6491888e+03
 4.3204598e+00   8.6928076e+03
 4.3251400e+00   8.6970368e+03
 4.3298202e+00   8.7830788e+03
 4.3344998e+00   8.7669475e+03
 4.3391800e+00   8.8437612e+03
 4.3438601e+00   8.9289494e+03
 4.3485398e+00   8.9687597e+03
 4.3532200e+00   8.9869324e+03
 4.3579001e+00   9.0079106e+03
 4.3625798e+00   8.8663079e+03
 4.3672600e+00   8.9039163e+03
 4.3719401e+00   8.7793644e+03
 4.3766198e+00   8.7685215e+03
 4.3813000e+00   8.6909862e+03
 4.3859801e+00   8.6061866e+03
 4.3906598e+00   8.4656137e+03
 4.3953400e+00   8.4530140e+03
 4.4000201e+00   8.2825084e+03
 4.4046998e+00   8.2955156e+03
 4.4093800e+00   8.1546650e+03
 4.4140601e+00   8.1023078e+03
 4.4187398e+00   8.0831499e+03
 4.4234200e+00   7.9737363e+03
 4.4281001e+00   7.8982927e+03
 4.4327798e+00   7.9539437e+03
 4.4374599e+00   7.8384896e+03
 4.4421401e+00   7.8363216e+03
 4.4468198e+00   7.8092730e+03
 4.4514999e+00   7.7384346e+03
 4.4561801e+00   7.7366032e+03
 4.4608598e+00   7.7185500e+03
 4.4655399e+00   7.6760877e+03
 4.4702201e+00   7.6840630e+03
 4.4748998e+00   7.6639211e+03
 4.4795799e+00   7.6273263e+03
 4.4842601e+00   7.6440881e+03
 4.4889398e+00   7.5867313e+03
 4.4936199e+00   7.5635720e+03
 4.4983001e+00   7.5216549e+03
 4.5029802e+00   7.4337666e+03
 4.5076599e+00   7.3932326e+03
 4.5123401e+00   7.3498761e+03
 4.5170202e+00   7.2326976e+03
 4.5216999e+00   7.2376282e+03
 4.5263801e+00   7.1513604e+03
 4.5310602e+00   7.1049551e+03
 4.5357399e+00   7.0991902e+03
 4.5404201e+00   7.0381220e+03
 4.5451002e+00   7.0178412e+03
 4.5497799e+00   6.9965493e+03
 4.5544600e+00   6.9673135e+03
 4.5591402e+00   6.9479967e+03
 4.5638199e+00   6.9140418e+03
 4.5685000e+00   6.8858011e+03
 4.5731802e+00   6.8952637e+03
 4.5778599e+00   6.8675826e+03
 4.5825400e+00   6.8590174e+03
 4.5872202e+00   6.8548781e+03
 4.5918999e+00   6.8222060e+03
 4.5965800e+00   6.8138247e+03
 4.6012602e+00   6.7756034e+03
 4.6059399e+00   6.7855755e+03
 4.6106200e+00   6.7868402e+03
 4.6153002e+00   6.7609803e+03
 4.6199799e+00   6.7286303e+03
 4.6246600e+00   6.7336779e+03
 4.6293402e+00   6.7032624e+03
 4.6340199e+00   6.6875377e+03
 4.6387000e+00   6.6867211e+03
 4.6433802e+00   6.6464615e+03
 4.6480598e+00   6.6501743e+03
 4.6527400e+00   6.6376300e+03
 4.6574202e+00   6.6116227e+03
 4.6620998e+00   6.6436029e+03
 4.6667800e+00   6.6022890e+03
 4.6714602e+00   6.5882395e+03
 4.6761398e+00   6.5881312e+03
 4.6808200e+00   6.5762873e+03
 4.6855001e+00   6.5769329e+03
 4.6901798e+00   6.5823941e+03
 4.6948600e+00   6.5901014e+03
 4.6995401e+00   6.5986665e+03
 4.7042198e+00   6.6101689e+03
 4.7089000e+00   6.6299045e+03
 4.7135801e+00   6.6998171e+03
 4.7182598e+00   6.7377792e+03
 4.7229400e+00   6.8334754e+03
 4.7276201e+00   6.8832109e+03
 4.7322998e+00   6.9642507e+03
 4.7369800e+00   7.0454628e+03
 4.7416601e+00   7.1079226e+03
 4.7463398e+00   7.1765060e+03
 4.7510200e+00   7.2723523e+03
 4.7557001e+00   7.3187298e+03
 4.7603798e+00   7.4221527e+03
 4.7650599e+00   7.5422525e+03
 4.7697401e+00   7.6816020e+03
 4.7744198e+00   7.8618169e+03
 4.7790999e+00   8.0738128e+03
 4.7837801e+00   8.2782356e+03
 4.7884598e+00   8.5521006e+03
 4.7931399e+00   8.7765692e+03
 4.7978201e+00   9.0001617e+03
 4.8024998e+00   9.1962362e+03
 4.8071799e+00   9.3156727e+03
 4.8118601e+00   9.3550472e+03
 4.8165398e+00   9.3253697e+03
 4.8212199e+00   9.2444843e+03
 4.8259001e+00   9.0830421e+03
 4.8305802e+00   8.8884211e+03
 4.8352599e+00   8.6518781e+03
 4.8399401e+00   8.4225746e+03
 4.8446202e+00   8.1624633e+03
 4.8492999e+00   7.9306589e+03
 4.8539801e+00   7.7032387e+03
 4.8586602e+00   7.4996315e+03
 4.8633399e+00   7.3285813e+03
 4.8680201e+00   7.2130703e+03
 4.8727002e+00   7.1154081e+03
 4.8773799e+00   7.0760510e+03
 4.8820601e+00   7.1035264e+03
 4.8867402e+00   7.1327922e+03
 4.8914199e+00   7.2210098e+03
 4.8961000e+00   7.3788049e+03
 4.9007802e+00   7.5088390e+03
 4.9054599e+00   7.6814915e+03
 4.9101400e+00   7.8467221e+03
 4.9148202e+00   7.9829239e+03
 4.9194999e+00   8.1113594e+03
 4.9241800e+00   8.2117762e+03
 4.9288602e+00   8.3123409e+03
 4.9335399e+00   8.3382563e+03
 4.9382200e+00   8.3855221e+03
 4.9429002e+00   8.3917044e+03
 4.9475799e+00   8.4502382e+03
 4.9522600e+00   8.4253248e+03
 4.9569402e+00   8.4569490e+03
 4.9616199e+00   8.4385910e+03
 4.9663000e+00   8.4382168e+03
 4.9709802e+00   8.4250154e+03
 4.9756598e+00   8.4144244e+03
 4.9803400e+00   8.3881060e+03
 4.9850202e+00   8.3546824e+03
 4.9896998e+00   8.2827607e+03
 4.9943800e+00   8.2067049e+03
 4.9990602e+00   8.0854990e+03
 5.0037398e+00   7.9377437e+03
 5.0084200e+00   7.7999269e+03
 5.0131001e+00   7.6300915e+03
 5.0177798e+00   7.4568646e+03
 5.0224600e+00   7.2959585e+03
 5.0271401e+00   7.1234253e+03
 5.0318198e+00   6.9596305e+03
 5.0365000e+00   6.8475724e+03
 5.0411801e+00   6.7140373e+03
 5.0458598e+00   6.6406143e+03
 5.0505400e+00   6.5541559e+03
 5.0552201e+00   6.5303878e+03
 5.0598998e+00   6.4687029e+03
 5.0645800e+00   6.4716508e+03
 5.0692601e+00   6.4755292e+03
 5.0739398e+00   6.4890477e+03
 5.0786200e+00   6.5718232e+03
 5.0833001e+00   6.6824168e+03
 5.0879798e+00   6.8164446e+03
 5.0926600e+00   6.9319480e+03
 5.0973401e+00   7.0477033e+03
 5.1020198e+00   7.4571978e+03
 5.1066999e+00   7.8236111e+03
 5.1113801e+00   7.8716268e+03
 5.1160598e+00   7.7170882e+03
 5.1207399e+00   7.9570642e+03
 5.1254201e+00   8.5727468e+03
 5.1300998e+00   9.9868664e+03
 5.1347799e+00   1.1161978e+04
 5.1394601e+00   1.2653936e+04
 5.1441398e+00   1.2977600e+04
 5.1488199e+00   1.3134643e+04
 5.1535001e+00   1.1900884e+04
 5.1581802e+00   1.1022329e+04
 5.1628599e+00   9.7039212e+03
 5.1675401e+00   8.5926700e+03
 5.1722202e+00   7.6449337e+03
 5.1768999e+00   7.0237856e+03
 5.1815801e+00   6.6340040e+03
 5.1862602e+00   6.5558591e+03
 5.1909399e+00   6.6450750e+03
 5.1956201e+00   6.5378895e+03
 5.2003002e+00   6.4559048e+03
 5.2049799e+00   6.2874466e+03
 5.2096601e+00   6.2490562e+03
 5.2143402e+00   6.2344607e+03
 5.2190199e+00   6.1745623e+03
 5.2237000e+00   6.1184518e+03
 5.2283802e+00   6.0720426e+03
 5.2330599e+00   6.0239669e+03
 5.2377400e+00   5.9984787e+03
 5.2424202e+00   5.9643131e+03
 5.2470999e+00   5.9620151e+03
 5.2517800e+00   5.9160368e+03
 5.2564602e+00   5.9114658e+03
 5.2611399e+00   5.8992412e+03
 5.2658200e+00   5.8735392e+03
 5.2705002e+00   5.8712637e+03
 5.2751799e+00   5.8476172e+03
 5.2798600e+00   5.8545924e+03
 5.2845402e+00   5.8426486e+03
 5.2892199e+00   5.8390423e+03
 5.2939000e+00   5.8384297e+03
 5.2985802e+00   5.8326934e+03
 5.3032598e+00   5.8090201e+03
 5.3079400e+00   5.8344526e+03
 5.3126202e+00   5.8160210e+03
 5.3172998e+00   5.8123176e+03
 5.3219800e+00   5.8185743e+03
 5.3266602e+00   5.8064982e+03
 5.3313398e+00   5.8010676e+03
 5.3360200e+00   5.7944414e+03
 5.3407001e+00   5.8017494e+03
 5.3453798e+00   5.7958206e+03
 5.3500600e+00   5.8098096e+03
 5.3547401e+00   5.7967267e+03
 5.3594198e+00   5.7953097e+03
 5.3641000e+00   5.7829353e+03
 5.3687801e+00   5.7996968e+03
 5.3734598e+00   5.8012847e+03
 5.3781400e+00   5.8077821e+03
 5.3828201e+00   5.8066836e+03
 5.3874998e+00   5.7958501e+03
 5.3921800e+00   5.8200116e+03
 5.3968601e+00   5.8279908e+03
 5.4015398e+00   5.8207111e+03
 5.4062200e+00   5.8575096e+03
 5.4109001e+00   5.8724199e+03
 5.4155798e+00   5.8550022e+03
 5.4202600e+00   5.8819901e+03
 5.4249401e+00   5.8911556e+03
 5.4296198e+00   5.9086659e+03
 5.4342999e+00   5.9464673e+03
 5.4389801e+00   5.9515439e+03
 5.4436598e+00   5.9848460e+03
 5.4483399e+00   6.0140355e+03
 5.4530201e+00   6.0346833e+03
 5.4576998e+00   6.0965469e+03
 5.4623799e+00   6.1258054e+03
 5.4670601e+00   6.1815018e+03
 5.4717398e+00   6.2560461e+03
 5.4764199e+00   6.3312248e+03
 5.4811001e+00   6.4463268e+03
 5.4857798e+00   6.5548628e+03
 5.4904599e+00   6.6889292e+03
 5.4951401e+00   6.8608907e+03
 5.4998202e+00   7.0511015e+03
 5.5044999e+00   7.3605085e+03
 5.5091801e+00   7.6574615e+03
 5.5138602e+00   8.0531240e+03
 5.5185399e+00   8.5549835e+03
 5.5232201e+00   9.0893401e+03
 5.5279002e+00   9.7553342e+03
 5.5325799e+00   1.0556215e+04
 5.5372601e+00   1.1324562e+04
 5.5419402e+00   1.2274485e+04
 5.5466199e+00   1.3059315e+04
 5.5513000e+00   1.3817670e+04
 5.5559802e+00   1.4379500e+04
 5.5606599e+00   1.4740910e+04
 5.5653400e+00   1.4892874e+04
 5.5700202e+00   1.4818960e+04
 5.5746999e+00   1.4537732e+04
 5.5793800e+00   1.4085213e+04
 5.5840602e+00   1.3576873e+04
 5.5887399e+00   1.2939553e+04
 5.5934200e+00   1.2346727e+04
 5.5981002e+00   1.1721705e+04
 5.6027799e+00   1.1140469e+04
 5.6074600e+00   1.0613455e+04
 5.6121402e+00   1.0124716e+04
 5.6168199e+00   9.7145524e+03
 5.6215000e+00   9.3138580e+03
 5.6261802e+00   8.9585534e+03
 5.6308599e+00   8.6405007e+03
 5.6355400e+00   8.3628809e+03
 5.6402202e+00   8.0942846e+03
 5.6448998e+00   7.8664129e+03
 5.6495800e+00   7.6364914e+03
 5.6542602e+00   7.4023300e+03
 5.6589398e+00   7.2310796e+03
 5.6636200e+00   7.0462526e+03
 5.6683002e+00   6.8898668e+03
 5.6729798e+00   6.7598775e+03
 5.6776600e+00   6.6035338e+03
 5.6823401e+00   6.5033519e+03
 5.6870198e+00   6.4100918e+03
 5.6917000e+00   6.3200815e+03
 5.6963801e+00   6.2610160e+03
 5.7010598e+00   6.1912611e+03
 5.7057400e+00   6.1263457e+03
 5.7104201e+00   6.0988334e+03
 5.7150998e+00   6.0780201e+03
 5.7197800e+00   6.0215355e+03
 5.7244601e+00   6.0183993e+03
 5.7291398e+00   5.9825008e+03
 5.7338200e+00   5.9724506e+03
 5.7385001e+00   5.9925237e+03
 5.7431798e+00   5.9707268e+03
 5.7478600e+00   5.9731984e+03
 5.7525401e+00   5.9732793e+03
 5.7572198e+00   5.9631159e+03
 5.7618999e+00   5.9792448e+03
 5.7665801e+00   5.9599202e+03
 5.7712598e+00   5.9467803e+03
 5.7759399e+00   5.9409027e+03
 5.7806201e+00   5.9309882e+03
 5.7852998e+00   5.9083651e+03
 5.7899799e+00   5.8929674e+03
 5.7946601e+00   5.8730449e+03
 5.7993398e+00   5.8903192e+03
 5.8040199e+00   5.8667972e+03
 5.8087001e+00   5.8751849e+03
 5.8133798e+00   5.8685028e+03
 5.8180599e+00   5.8497160e+03
 5.8227401e+00   5.8632894e+03
 5.8274202e+00   5.8506565e+03
 5.8320999e+00   5.8427691e+03
 5.8367801e+00   5.8730352e+03
 5.8414602e+00   5.8668725e+03
 5.8461399e+00   5.8992929e+03
 5.8508201e+00   5.9110904e+03
 5.8555002e+00   5.9112293e+03
 5.8601799e+00   5.9607246e+03
 5.8648601e+00   5.9773537e+03
 5.8695402e+00   5.9892080e+03
 5.8742199e+00   6.0350552e+03
 5.8789001e+00   6.0546803e+03
 5.8835802e+00   6.1258747e+03
 5.8882599e+00   6.1779153e+03
 5.8929400e+00   6.2308743e+03
 5.8976202e+00   6.3099090e+03
 5.9022999e+00   6.3925068e+03
 5.9069800e+00   6.5408210e+03
 5.9116602e+00   6.7789532e+03
 5.9163399e+00   6.9752280e+03
 5.9210200e+00   7.1853328e+03
 5.9257002e+00   7.2417013e+03
 5.9303799e+00   7.5138837e+03
 5.9350600e+00   8.0202610e+03
 5.9397402e+00   8.2997353e+03
 5.9444199e+00   8.3850032e+03
 5.9491000e+00   8.2934545e+03
 5.9537802e+00   8.1275265e+03
 5.9584599e+00   7.7447174e+03
 5.9631400e+00   7.6169632e+03
 5.9678202e+00   7.5690742e+03
 5.9724998e+00   7.4789386e+03
 5.9771800e+00   7.3563402e+03
 5.9818602e+00   7.2453077e+03
 5.9865398e+00   7.1824772e+03
 5.9912200e+00   7.1296350e+03
 5.9959002e+00   7.0544457e+03
 6.0005798e+00   7.0002275e+03
 6.0052600e+00   6.8965987e+03
 6.0099401e+00   6.8389756e+03
 6.0146198e+00   6.7535806e+03
 6.0193000e+00   6.6501644e+03
 6.0239801e+00   6.5924905e+03
 6.0286598e+00   6.5015444e+03
 6.0333400e+00   6.4308124e+03
 6.0380201e+00   6.3565795e+03
 6.0426998e+00   6.2763875e+03
 6.0473800e+00   6.2296771e+03
 6.0520601e+00   6.1839062e+03
 6.0567398e+00   6.0935305e+03
 6.0614200e+00   6.0940368e+03
 6.0661001e+00   6.0302842e+03
 6.0707798e+00   5.9927580e+03
 6.0754600e+00   5.9871226e+03
 6.0801401e+00   5.9490132e+03
 6.0848198e+00   5.9041916e+03
 6.0895000e+00   5.9218966e+03
 6.0941801e+00   5.8642384e+03
 6.0988598e+00   5.8721730e+03
 6.1035399e+00   5.8683522e+03
 6.1082201e+00   5.8389066e+03
 6.1128998e+00   5.8583567e+03
 6.1175799e+00   5.8235420e+03
 6.1222601e+00   5.8117580e+03
 6.1269398e+00   5.8181978e+03
 6.1316199e+00   5.8026449e+03
 6.1363001e+00   5.8049879e+03
 6.1409798e+00   5.8110249e+03
 6.1456599e+00   5.7878690e+03
 6.1503401e+00   5.8031865e+03
 6.1550202e+00   5.7860497e+03
 6.1596999e+00   5.7926454e+03
 6.1643801e+00   5.7981916e+03
 6.1690602e+00   5.7852095e+03
 6.1737399e+00   5.7861237e+03
 6.1784201e+00   5.8183064e+03
 6.1831002e+00   5.7812626e+03
 6.1877799e+00   5.8096966e+03
 6.1924601e+00   5.8016387e+03
 6.1971402e+00   5.7966164e+03
 6.2018199e+00   5.8224696e+03
 6.2065001e+00   5.8074904e+03
 6.2111802e+00   5.7954852e+03
 6.2158599e+00   5.8171334e+03
 6.2205400e+00   5.7848763e+03
 6.2252202e+00   5.8147301e+03
 6.2298999e+00   5.8199972e+03
 6.2345800e+00   5.7921859e+03
 6.2392602e+00   5.8297196e+03
 6.2439399e+00   5.8168170e+03
 6.2486200e+00   5.8218801e+03
 6.2533002e+00   5.8315379e+03
 6.2579799e+00   5.8283324e+03
 6.2626600e+00   5.8310593e+03
 6.2673402e+00   5.8247904e+03
 6.2720199e+00   5.8194826e+03
 6.2767000e+00   5.8606549e+03
 6.2813802e+00   5.8361969e+03
 6.2860599e+00   5.8364689e+03
 6.2907400e+00   5.8373105e+03
 6.2954202e+00   5.8511168e+03
 6.3000998e+00   5.8329817e+03
 6.3047800e+00   5.8588967e+03
 6.3094602e+00   5.8388746e+03
 6.3141398e+00   5.8674999e+03
 6.3188200e+00   5.8763915e+03
 6.3235002e+00   5.8564647e+03
 6.3281798e+00   5.8847207e+03
 6.3328600e+00   5.8775064e+03
 6.3375401e+00   5.9003028e+03
 6.3422198e+00   5.8804580e+03
 6.3469000e+00   5.8821330e+03
 6.3515801e+00   5.8844626e+03
 6.3562598e+00   5.8998078e+03
 6.3609400e+00   5.8777676e+03
 6.3656201e+00   5.9012325e+03
 6.3702998e+00   5.8840927e+03
 6.3749800e+00   5.9096424e+03
 6.3796601e+00   5.8953997e+03
 6.3843398e+00   5.9230919e+03
 6.3890200e+00   5.9047728e+03
 6.3937001e+00   5.9178308e+03
 6.3983798e+00   5.8997721e+03
 6.4030600e+00   5.9264237e+03
 6.4077401e+00   5.9189020e+03
 6.4124198e+00   5.9450065e+03
 6.4171000e+00   5.9471616e+03
 6.4217801e+00   5.9473838e+03
 6.4264598e+00   5.9407077e+03
 6.4311399e+00   5.9431141e+03
 6.4358201e+00   5.9560199e+03
 6.4404998e+00   5.9664512e+03
 6.4451799e+00   5.9860329e+03
 6.4498601e+00   5.9532099e+03
 6.4545398e+00   5.9540239e+03
 6.4592199e+00   5.9607334e+03
 6.4639001e+00   5.9795901e+03
 6.4685798e+00   5.9932229e+03
 6.4732599e+00   5.9661434e+03
 6.4779401e+00   5.9778845e+03
 6.4826198e+00   5.9770027e+03
 6.4872999e+00   5.9795987e+03
 6.4919801e+00   5.9910480e+03
 6.4966602e+00   6.0145336e+03
 6.5013399e+00   5.9779936e+03
 6.5060201e+00   6.0391539e+03
 6.5107002e+00   5.9951213e+03
 6.5153799e+00   6.0275962e+03
 6.5200601e+00   6.0435548e+03
 6.5247402e+00   6.0618313e+03
 6.5294199e+00   6.0269273e+03
 6.5341001e+00   6.0635687e+03
 6.5387802e+00   6.0574739e+03
 6.5434599e+00   6.0719638e+03
 6.5481400e+00   6.0862163e+03
 6.5528202e+00   6.0873089e+03
 6.5574999e+00   6.1026617e+03
 6.5621800e+00   6.0648595e+03
 6.5668602e+00   6.1080029e+03
 6.5715399e+00   6.1103961e+03
 6.5762200e+00   6.1071273e+03
 6.5809002e+00   6.1433844e+03
 6.5855799e+00   6.1478699e+03
 6.5902600e+00   6.1259959e+03
 6.5949402e+00   6.1806515e+03
 6.5996199e+00   6.1434819e+03
 6.6043000e+00   6.1889272e+03
 6.6089802e+00   6.1794636e+03
 6.6136599e+00   6.1967842e+03
 6.6183400e+00   6.2161141e+03
 6.6230202e+00   6.2003969e+03
 6.6276999e+00   6.2080710e+03
 6.6323800e+00   6.2477851e+03
 6.6370602e+00   6.2531661e+03
 6.6417398e+00   6.2259384e+03
 6.6464200e+00   6.3131582e+03
 6.6511002e+00   6.2474372e+03
 6.6557798e+00   6.3011956e+03
 6.6604600e+00   6.2966471e+03
 6.6651402e+00   6.3172048e+03
 6.6698198e+00   6.3011383e+03
 6.6745000e+00   6.3452835e+03
 6.6791801e+00   6.3178140e+03
 6.6838598e+00   6.3761623e+03
 6.6885400e+00   6.3249767e+03
 6.6932201e+00   6.3994396e+03
 6.6978998e+00   6.3435222e+03
 6.7025800e+00   6.4003898e+03
 6.7072601e+00   6.4231919e+03
 6.7119398e+00   6.4020391e+03
 6.7166200e+00   6.4274264e+03
 6.7213001e+00   6.4444029e+03
 6.7259798e+00   6.4403411e+03
 6.7306600e+00   6.4508784e+03
 6.7353401e+00   6.5253762e+03
 6.7400198e+00   6.4920618e+03
 6.7447000e+00   6.5526679e+03
 6.7493801e+00   6.5147972e+03
 6.7540598e+00   6.5685846e+03
 6.7587399e+00   6.5571497e+03
 6.7634201e+00   6.5824541e+03
 6.7680998e+00   6.5525130e+03
 6.7727799e+00   6.6565305e+03
 6.7774601e+00   6.5808572e+03
 6.7821398e+00   6.6527649e+03
 6.7868199e+00   6.6414075e+03
 6.7915001e+00   6.6643110e+03
 6.7961798e+00   6.6532328e+03
 6.8008599e+00   6.6438736e+03
 6.8055401e+00   6.6394451e+03
 6.8102198e+00   6.6756892e+03
 6.8148999e+00   6.6922108e+03
 6.8195801e+00   6.6972438e+03
 6.8242602e+00   6.7355748e+03
 6.8289399e+00   6.7038020e+03
 6.8336201e+00   6.7975174e+03
 6.8383002e+00   6.7571514e+03
 6.8429799e+00   6.7887842e+03
 6.8476601e+00   6.8715604e+03
 6.8523402e+00   6.8461257e+03
 6.8570199e+00   6.8555993e+03
 6.8617001e+00   6.9141563e+03
 6.8663802e+00   6.9295728e+03
 6.8710599e+00   7.0036286e+03
 6.8757401e+00   7.0528487e+03
 6.8804202e+00   7.0932252e+03
 6.8850999e+00   7.1226539e+03
 6.8897800e+00   7.2162471e+03
 6.8944602e+00   7.2228844e+03
 6.8991399e+00   7.3469331e+03
 6.9038200e+00   7.3723877e+03
 6.9085002e+00   7.4644415e+03
 6.9131799e+00   7.4858057e+03
 6.9178600e+00   7.6352108e+03
 6.9225402e+00   7.6535810e+03
 6.9272199e+00   7.7617755e+03
 6.9319000e+00   7.7614126e+03
 6.9365802e+00   7.8708993e+03
 6.9412599e+00   7.8334838e+03
 6.9459400e+00   7.9233183e+03
 6.9506202e+00   7.9334739e+03
 6.9552999e+00   7.9698823e+03
 6.9599800e+00   8.0346982e+03
 6.9646602e+00   8.0426623e+03
 6.9693398e+00   7.9888185e+03
 6.9740200e+00   8.0864380e+03
 6.9787002e+00   8.0699669e+03
 6.9833798e+00   8.0747257e+03
 6.9880600e+00   8.1356426e+03
 6.9927402e+00   8.1189423e+03
 6.9974198e+00   8.1442555e+03
 7.0021000e+00   8.0978569e+03
 7.0067801e+00   8.1639439e+03
 7.0114598e+00   8.1511262e+03
 7.0161400e+00   8.1180925e+03
 7.0208201e+00   8.0712496e+03
 7.0254998e+00   8.0922621e+03
 7.0301800e+00   7.9875870e+03
 7.0348601e+00   7.9816203e+03
 7.0395398e+00   7.9000712e+03
 7.0442200e+00   7.8644823e+03
 7.0489001e+00   7.7660997e+03
 7.0535798e+00   7.7306770e+03
 7.0582600e+00   7.6375363e+03
 7.0629401e+00   7.6564127e+03
 7.0676198e+00   7.5065306e+03
 7.0723000e+00   7.4914813e+03
 7.0769801e+00   7.3642895e+03
 7.0816598e+00   7.2878775e+03
 7.0863400e+00   7.2198117e+03
 7.0910201e+00   7.0904971e+03
 7.0956998e+00   7.0298926e+03
 7.1003799e+00   6.9703030e+03
 7.1050601e+00   6.9216023e+03
 7.1097398e+00   6.8540789e+03
 7.1144199e+00   6.8395405e+03
 7.1191001e+00   6.8124305e+03
 7.1237798e+00   6.8341140e+03
 7.1284599e+00   6.7487412e+03
 7.1331401e+00   6.7554896e+03
 7.1378198e+00   6.7048950e+03
 7.1424999e+00   6.7304787e+03
 7.1471801e+00   6.6912949e+03
 7.1518602e+00   6.7064064e+03
 7.1565399e+00   6.6760753e+03
 7.1612201e+00   6.6859911e+03
 7.1659002e+00   6.6379158e+03
 7.1705799e+00   6.6428905e+03
 7.1752601e+00   6.6686782e+03
 7.1799402e+00   6.6288376e+03
 7.1846199e+00   6.6349653e+03
 7.1893001e+00   6.6320931e+03
 7.1939802e+00   6.6113496e+03
 7.1986599e+00   6.5982345e+03
 7.2033401e+00   6.6019693e+03
 7.2080202e+00   6.5888452e+03
 7.2126999e+00   6.6117103e+03
 7.2173800e+00   6.5551666e+03
 7.2220602e+00   6.5762943e+03
 7.2267399e+00   6.5820340e+03
 7.2314200e+00   6.5775240e+03
 7.2361002e+00   6.5781073e+03
 7.2407799e+00   6.5860886e+03
 7.2454600e+00   6.5556936e+03
 7.2501402e+00   6.6031378e+03
 7.2548199e+00   6.6043648e+03
 7.2595000e+00   6.5970222e+03
 7.2641802e+00   6.6300923e+03
 7.2688599e+00   6.6034374e+03
 7.2735400e+00   6.6196864e+03
 7.2782202e+00   6.6080948e+03
 7.2828999e+00   6.6144452e+03
 7.2875800e+00   6.6140635e+03
 7.2922602e+00   6.6037702e+03
 7.2969398e+00   6.5874475e+03
 7.3016200e+00   6.6211413e+03
 7.3063002e+00   6.6243269e+03
 7.3109798e+00   6.6502893e+03
 7.3156600e+00   6.6540304e+03
 7.3203402e+00   6.6822011e+03
 7.3250198e+00   6.6745139e+03
 7.3297000e+00   6.7058017e+03
 7.3343801e+00   6.7005370e+03
 7.3390598e+00   6.7424058e+03
 7.3437400e+00   6.7537772e+03
 7.3484201e+00   6.7659274e+03
 7.3530998e+00   6.7912646e+03
 7.3577800e+00   6.7976948e+03
 7.3624601e+00   6.8316059e+03
 7.3671398e+00   6.8120482e+03
 7.3718200e+00   6.8503699e+03
 7.3765001e+00   6.8555926e+03
 7.3811798e+00   6.8678380e+03
 7.3858600e+00   6.8628638e+03
 7.3905401e+00   6.8606277e+03
 7.3952198e+00   6.8795763e+03
 7.3999000e+00   6.8943155e+03
 7.4045801e+00   6.8871330e+03
 7.4092598e+00   6.8876871e+03
 7.4139400e+00   6.9168692e+03
 7.4186201e+00   6.9028777e+03
 7.4232998e+00   6.9177073e+03
 7.4279799e+00   6.9380048e+03
 7.4326601e+00   6.9550136e+03
 7.4373398e+00   6.9648222e+03
 7.4420199e+00   6.9878959e+03
 7.4467001e+00   6.9852266e+03
 7.4513798e+00   7.0181895e+03
 7.4560599e+00   7.0375521e+03
 7.4607401e+00   7.0377776e+03
 7.4654198e+00   7.0774411e+03
 7.4700999e+00   7.0771194e+03
 7.4747801e+00   7.1250980e+03
 7.4794598e+00   7.1292915e+03
 7.4841399e+00   7.1666542e+03
 7.4888201e+00   7.1811897e+03
 7.4935002e+00   7.2240462e+03
 7.4981799e+00   7.2328204e+03
 7.5028601e+00   7.2863691e+03
 7.5075402e+00   7.3130296e+03
 7.5122199e+00   7.3726532e+03
 7.5169001e+00   7.4049298e+03
 7.5215802e+00   7.4432928e+03
 7.5262599e+00   7.4983464e+03
 7.5309401e+00   7.5206310e+03
 7.5356202e+00   7.5696135e+03
 7.5402999e+00   7.6184119e+03
 7.5449800e+00   7.6508554e+03
 7.5496602e+00   7.6675721e+03
 7.5543399e+00   7.7047544e+03
 7.5590200e+00   7.7035911e+03
 7.5637002e+00   7.7464227e+03
 7.5683799e+00   7.7246993e+03
 7.5730600e+00   7.7577099e+03
 7.5777402e+00   7.7312826e+03
 7.5824199e+00   7.7178461e+03
 7.5871000e+00   7.6923214e+03
 7.5917802e+00   7.6865213e+03
 7.5964599e+00   7.6279123e+03
 7.6011400e+00   7.5770579e+03
 7.6058202e+00   7.4974631e+03
 7.6104999e+00   7.4088837e+03
 7.6151800e+00   7.3207034e+03
 7.6198602e+00   7.1531035e+03
 7.6245399e+00   7.0752122e+03
 7.6292200e+00   6.9187985e+03
 7.6339002e+00   6.8568182e+03
 7.6385798e+00   6.7121451e+03
 7.6432600e+00   6.6336779e+03
 7.6479402e+00   6.5381420e+03
 7.6526198e+00   6.4948123e+03
 7.6573000e+00   6.4057597e+03
 7.6619802e+00   6.3823886e+03
 7.6666598e+00   6.3167673e+03
 7.6713400e+00   6.2958344e+03
 7.6760201e+00   6.2478072e+03
 7.6806998e+00   6.2404511e+03
 7.6853800e+00   6.1974584e+03
 7.6900601e+00   6.1621051e+03
 7.6947398e+00   6.1322145e+03
 7.6994200e+00   6.1275695e+03
 7.7041001e+00   6.1208798e+03
 7.7087798e+00   6.0940188e+03
 7.7134600e+00   6.0808426e+03
 7.7181401e+00   6.0603598e+03
 7.7228198e+00   6.0475195e+03
 7.7275000e+00   6.0322737e+03
 7.7321801e+00   6.0221012e+03
 7.7368598e+00   6.0071786e+03
 7.7415400e+00   5.9923043e+03
 7.7462201e+00   5.9717777e+03
 7.7508998e+00   5.9683033e+03
 7.7555799e+00   5.9315091e+03
 7.7602601e+00   5.9469499e+03
 7.7649398e+00   5.9134323e+03
 7.7696199e+00   5.9195555e+03
 7.7743001e+00   5.9109431e+03
 7.7789798e+00   5.8840979e+03
 7.7836599e+00   5.8835940e+03
 7.7883401e+00   5.8639982e+03
 7.7930198e+00   5.8591254e+03
 7.7976999e+00   5.8433807e+03
 7.8023801e+00   5.8370544e+03
 7.8070598e+00   5.8118980e+03
 7.8117399e+00   5.8288301e+03
 7.8164201e+00   5.7856863e+03
 7.8211002e+00   5.8000347e+03
 7.8257799e+00   5.7711905e+03
 7.8304601e+00   5.7665167e+03
 7.8351402e+00   5.7876147e+03
 7.8398199e+00   5.7702003e+03
 7.8445001e+00   5.7452287e+03
 7.8491802e+00   5.7649752e+03
 7.8538599e+00   5.7375082e+03
 7.8585401e+00   5.7234478e+03
 7.8632202e+00   5.7411974e+03
 7.8678999e+00   5.6883578e+03
 7.8725801e+00   5.7254192e+03
 7.8772602e+00   5.7044187e+03
 7.8819399e+00   5.6865958e+03
 7.8866200e+00   5.6888087e+03
 7.8913002e+00   5.6841406e+03
 7.8959799e+00   5.6696006e+03
 7.9006600e+00   5.6788680e+03
 7.9053402e+00   5.6393764e+03
 7.9100199e+00   5.6789797e+03
 7.9147000e+00   5.6404765e+03
 7.9193802e+00   5.6448193e+03
 7.9240599e+00   5.6316901e+03
 7.9287400e+00   5.6229486e+03
 7.9334202e+00   5.6164090e+03
 7.9380999e+00   5.6079643e+03
 7.9427800e+00   5.5799524e+03
 7.9474602e+00   5.6185613e+03
 7.9521399e+00   5.5821228e+03
 7.9568200e+00   5.5861817e+03
 7.9615002e+00   5.6045235e+03
 7.9661798e+00   5.5758642e+03
 7.9708600e+00   5.5753176e+03
 7.9755402e+00   5.5684963e+03
 7.9802198e+00   5.5479368e+03
 7.9849000e+00   5.5654129e+03
 7.9895802e+00   5.5448545e+03
 7.9942598e+00   5.5251078e+03
 7.9989400e+00   5.5506837e+03
 8.0036201e+00   5.5279948e+03
 8.0082998e+00   5.5279276e+03
 8.0129805e+00   5.5286825e+03
 8.0176601e+00   5.5177182e+03
 8.0223398e+00   5.5281899e+03
 8.0270205e+00   5.5089898e+03
 8.0317001e+00   5.5141889e+03
 8.0363798e+00   5.5377412e+03
 8.0410604e+00   5.5119978e+03
 8.0457401e+00   5.5227523e+03
 8.0504198e+00   5.5375910e+03
 8.0551004e+00   5.5294609e+03
 8.0597801e+00   5.5672416e+03
 8.0644598e+00   5.5862723e+03
 8.0691404e+00   5.6163235e+03
 8.0738201e+00   5.6673354e+03
 8.0784998e+00   5.6998779e+03
 8.0831804e+00   5.7388048e+03
 8.0878601e+00   5.8163318e+03
 8.0925398e+00   5.8083082e+03
 8.0972204e+00   5.9113576e+03
 8.1019001e+00   5.9523621e+03
 8.1065798e+00   5.9677674e+03
 8.1112604e+00   6.0237022e+03
 8.1159401e+00   6.0293012e+03
 8.1206198e+00   6.0371371e+03
 8.1253004e+00   6.0659747e+03
 8.1299801e+00   6.0687485e+03
 8.1346598e+00   6.0656022e+03
 8.1393404e+00   6.1000924e+03
 8.1440201e+00   6.0690304e+03
 8.1486998e+00   6.1190724e+03
 8.1533804e+00   6.1010687e+03
 8.1580601e+00   6.1559220e+03
 8.1627398e+00   6.1564981e+03
 8.1674204e+00   6.1926532e+03
 8.1721001e+00   6.2343724e+03
 8.1767797e+00   6.3115943e+03
 8.1814604e+00   6.3464889e+03
 8.1861401e+00   6.4450822e+03
 8.1908197e+00   6.4934929e+03
 8.1955004e+00   6.5786665e+03
 8.2001801e+00   6.6845696e+03
 8.2048597e+00   6.7725191e+03
 8.2095404e+00   6.8571680e+03
 8.2142200e+00   6.9669426e+03
 8.2188997e+00   7.0485874e+03
 8.2235804e+00   7.1339451e+03
 8.2282600e+00   7.2144088e+03
 8.2329397e+00   7.2473365e+03
 8.2376204e+00   7.3035892e+03
 8.2423000e+00   7.3007580e+03
 8.2469797e+00   7.3027225e+03
 8.2516603e+00   7.2396500e+03
 8.2563400e+00   7.2273899e+03
 8.2610197e+00   7.1415357e+03
 8.2657003e+00   7.0769598e+03
 8.2703800e+00   6.9923757e+03
 8.2750597e+00   6.8853894e+03
 8.2797403e+00   6.8196853e+03
 8.2844200e+00   6.7152441e+03
 8.2890997e+00   6.6205685e+03
 8.2937803e+00   6.5106890e+03
 8.2984600e+00   6.4202716e+03
 8.3031397e+00   6.2945898e+03
 8.3078203e+00   6.2173840e+03
 8.3125000e+00   6.1262133e+03
 8.3171797e+00   6.0436827e+03
 8.3218603e+00   5.9268387e+03
 8.3265400e+00   5.8520281e+03
 8.3312197e+00   5.7764976e+03
 8.3359003e+00   5.7405743e+03
 8.3405800e+00   5.6754936e+03
 8.3452597e+00   5.6564861e+03
 8.3499403e+00   5.6202297e+03
 8.3546200e+00   5.6386480e+03
 8.3592997e+00   5.6149585e+03
 8.3639803e+00   5.6338979e+03
 8.3686600e+00   5.6829547e+03
 8.3733397e+00   5.8043943e+03
 8.3780203e+00   5.9861206e+03
 8.3827000e+00   6.1886340e+03
 8.3873796e+00   6.1492957e+03
 8.3920603e+00   6.2868533e+03
 8.3967400e+00   6.5042420e+03
 8.4014196e+00   6.8944637e+03
 8.4061003e+00   6.9952805e+03
 8.4107800e+00   7.0862092e+03
 8.4154596e+00   6.9532186e+03
 8.4201403e+00   6.8928508e+03
 8.4248199e+00   6.4274987e+03
 8.4294996e+00   6.3753656e+03
 8.4341803e+00   6.3391031e+03
 8.4388599e+00   6.3052673e+03
 8.4435396e+00   6.2131141e+03
 8.4482203e+00   6.0749773e+03
 8.4528999e+00   6.0758934e+03
 8.4575796e+00   6.0623141e+03
 8.4622602e+00   6.0909732e+03
 8.4669399e+00   6.1199174e+03
 8.4716196e+00   6.1481508e+03
 8.4763002e+00   6.1887580e+03
 8.4809799e+00   6.2147180e+03
 8.4856596e+00   6.2539373e+03
 8.4903402e+00   6.2672306e+03
 8.4950199e+00   6.3046632e+03
 8.4996996e+00   6.3284408e+03
 8.5043802e+00   6.3408351e+03
 8.5090599e+00   6.3274927e+03
 8.5137396e+00   6.3562726e+03
 8.5184202e+00   6.3420978e+03
 8.5230999e+00   6.3814822e+03
 8.5277796e+00   6.3654173e+03
 8.5324602e+00   6.3866417e+03
 8.5371399e+00   6.3840286e+03
 8.5418196e+00   6.3814728e+03
 8.5465002e+00   6.3826541e+03
 8.5511799e+00   6.3748997e+03
 8.5558596e+00   6.3664527e+03
 8.5605402e+00   6.3283500e+03
 8.5652199e+00   6.3279091e+03
 8.5698996e+00   6.2692702e+03
 8.5745802e+00   6.2527934e+03
 8.5792599e+00   6.1910187e+03
 8.5839396e+00   6.1749642e+03
 8.5886202e+00   6.1146027e+03
 8.5932999e+00   6.0972126e+03
 8.5979795e+00   6.0173314e+03
 8.6026602e+00   5.9860487e+03
 8.6073399e+00   5.9265244e+03
 8.6120195e+00   5.9013605e+03
 8.6167002e+00   5.8713014e+03
 8.6213799e+00   5.8110965e+03
 8.6260595e+00   5.7855058e+03
 8.6307402e+00   5.7319284e+03
 8.6354198e+00   5.7213158e+03
 8.6400995e+00   5.6892437e+03
 8.6447802e+00   5.6712292e+03
 8.6494598e+00   5.6360107e+03
 8.6541405e+00   5.6371538e+03
 8.6588202e+00   5.6093453e+03
 8.6634998e+00   5.5981479e+03
 8.6681805e+00   5.5721465e+03
 8.6728601e+00   5.5680086e+03
 8.6775398e+00   5.5557051e+03
 8.6822205e+00   5.5604267e+03
 8.6869001e+00   5.5523712e+03
 8.6915798e+00   5.5451024e+03
 8.6962605e+00   5.5486821e+03
 8.7009401e+00   5.5290624e+03
 8.7056198e+00   5.5301114e+03
 8.7103004e+00   5.5230417e+03
 8.7149801e+00   5.5370923e+03
 8.7196598e+00   5.5213999e+03
 8.7243404e+00   5.5229239e+03
 8.7290201e+00   5.5200490e+03
 8.7336998e+00   5.5140359e+03
 8.7383804e+00   5.5090273e+03
 8.7430601e+00   5.5191054e+03
 8.7477398e+00   5.5030955e+03
 8.7524204e+00   5.5005466e+03
 8.7571001e+00   5.5042211e+03
 8.7617798e+00   5.4797847e+03
 8.7664604e+00   5.4851293e+03
 8.7711401e+00   5.4740357e+03
 8.7758198e+00   5.4686840e+03
 8.7805004e+00   5.4547859e+03
 8.7851801e+00   5.4534604e+03
 8.7898598e+00   5.4350428e+03
 8.7945404e+00   5.4295843e+03
 8.7992201e+00   5.4057747e+03
 8.8038998e+00   5.4095236e+03
 8.8085804e+00   5.3679878e+03
 8.8132601e+00   5.3858435e+03
 8.8179398e+00   5.3520538e+03
 8.8226204e+00   5.3496741e+03
 8.8273001e+00   5.3213114e+03
 8.8319798e+00   5.3088163e+03
 8.8366604e+00   5.2942016e+03
 8.8413401e+00   5.2719313e+03
 8.8460197e+00   5.2413363e+03
 8.8507004e+00   5.2249019e+03
 8.8553801e+00   5.1932108e+03
 8.8600597e+00   5.1569821e+03
 8.8647404e+00   5.1489317e+03
 8.8694201e+00   5.1067285e+03
 8.8740997e+00   5.0909445e+03
 8.8787804e+00   5.0679759e+03
 8.8834600e+00   5.0484998e+03
 8.8881397e+00   5.0327234e+03
 8.8928204e+00   5.0353183e+03
 8.8975000e+00   5.0047952e+03
 8.9021797e+00   5.0033592e+03
 8.9068604e+00   4.9863400e+03
 8.9115400e+00   4.9824210e+03
 8.9162197e+00   4.9821538e+03
 8.9209003e+00   4.9725492e+03
 8.9255800e+00   4.9764043e+03
 8.9302597e+00   4.9643378e+03
 8.9349403e+00   4.9584135e+03
 8.9396200e+00   4.9573287e+03
 8.9442997e+00   4.9657021e+03
 8.9489803e+00   4.9576542e+03
 8.9536600e+00   4.9666746e+03
 8.9583397e+00   4.9530208e+03
 8.9630203e+00   4.9709727e+03
 8.9677000e+00   4.9493863e+03
 8.9723797e+00   4.9664735e+03
 8.9770603e+00   4.9601781e+03
 8.9817400e+00   4.9691008e+03
 8.9864197e+00   4.9599989e+03
 8.9911003e+00   4.9647938e+03
 8.9957800e+00   4.9571603e+03
 9.0004597e+00   4.9658501e+03
 9.0051403e+00   4.9473166e+03
 9.0098200e+00   4.9440840e+03
 9.0144997e+00   4.9450169e+03
 9.0191803e+00   4.9403006e+03
 9.0238600e+00   4.9326058e+03
 9.0285397e+00   4.9204640e+03
 9.0332203e+00   4.9128745e+03
 9.0379000e+00   4.9119248e+03
 9.0425797e+00   4.9055983e+03
 9.0472603e+00   4.8872733e+03
 9.0519400e+00   4.8977434e+03
 9.0566196e+00   4.8920008e+03
 9.0613003e+00   4.8995871e+03
 9.0659800e+00   4.8908301e+03
 9.0706596e+00   4.8850635e+03
 9.0753403e+00   4.8834636e+03
 9.0800200e+00   4.8867095e+03
 9.0846996e+00   4.8803995e+03
 9.0893803e+00   4.8942952e+03
 9.0940599e+00   4.8903581e+03
 9.0987396e+00   4.8910581e+03
 9.1034203e+00   4.8961150e+03
 9.1080999e+00   4.9006646e+03
 9.1127796e+00   4.9042972e+03
 9.1174603e+00   4.9075833e+03
 9.1221399e+00   4.9250826e+03
 9.1268196e+00   4.9166899e+03
 9.1315002e+00   4.9481261e+03
 9.1361799e+00   4.9297136e+03
 9.1408596e+00   4.9530774e+03
 9.1455402e+00   4.9454455e+03
 9.1502199e+00   4.9534369e+03
 9.1548996e+00   4.9565251e+03
 9.1595802e+00   4.9690161e+03
 9.1642599e+00   4.9834872e+03
 9.1689396e+00   4.9818896e+03
 9.1736202e+00   4.9904179e+03
 9.1782999e+00   5.0051784e+03
 9.1829796e+00   5.0274322e+03
 9.1876602e+00   5.0370366e+03
 9.1923399e+00   5.0633775e+03
 9.1970196e+00   5.0607239e+03
 9.2017002e+00   5.1005345e+03
 9.2063799e+00   5.1042859e+03
 9.2110596e+00   5.1366663e+03
 9.2157402e+00   5.1562176e+03
 9.2204199e+00   5.1785166e+03
 9.2250996e+00   5.2088535e+03
 9.2297802e+00   5.2385653e+03
 9.2344599e+00   5.2676878e+03
 9.2391396e+00   5.3052798e+03
 9.2438202e+00   5.3461110e+03
 9.2484999e+00   5.3683234e+03
 9.2531796e+00   5.4242975e+03
 9.2578602e+00   5.4580173e+03
 9.2625399e+00   5.5046733e+03
 9.2672195e+00   5.5446976e+03
 9.2719002e+00   5.5843538e+03
 9.2765799e+00   5.6120708e+03
 9.2812595e+00   5.6482160e+03
 9.2859402e+00   5.6669395e+03
 9.2906199e+00   5.6917434e+03
 9.2952995e+00   5.6978813e+03
 9.2999802e+00   5.7142070e+03
 9.3046598e+00   5.7194725e+03
 9.3093395e+00   5.7358578e+03
 9.3140202e+00   5.7387576e+03
 9.3186998e+00   5.7231970e+03
 9.3233805e+00   5.7224249e+03
 9.3280602e+00   5.7213100e+03
 9.3327398e+00   5.7214204e+03
 9.3374205e+00   5.7076810e+03
 9.3421001e+00   5.7130159e+03
 9.3467798e+00   5.6906547e+03
 9.3514605e+00   5.6838928e+03
 9.3561401e+00   5.6576527e+03
 9.3608198e+00   5.6480974e+03
 9.3655005e+00   5.6301472e+03
 9.3701801e+00   5.6103702e+03
 9.3748598e+00   5.5778296e+03
 9.3795404e+00   5.5555339e+03
 9.3842201e+00   5.5266489e+03
 9.3888998e+00   5.5024458e+03
 9.3935804e+00   5.4772093e+03
 9.3982601e+00   5.4494789e+03
 9.4029398e+00   5.4367584e+03
 9.4076204e+00   5.4022035e+03
 9.4123001e+00   5.3830302e+03
 9.4169798e+00   5.3647327e+03
 9.4216604e+00   5.3453449e+03
 9.4263401e+00   5.3403389e+03
 9.4310198e+00   5.3170222e+03
 9.4357004e+00   5.2841416e+03
 9.4403801e+00   5.2908306e+03
 9.4450598e+00   5.2783945e+03
 9.4497404e+00   5.2762894e+03
 9.4544201e+00   5.2742302e+03
 9.4590998e+00   5.2714002e+03
 9.4637804e+00   5.2795889e+03
 9.4684601e+00   5.2884731e+03
 9.4731398e+00   5.2838197e+03
 9.4778204e+00   5.2962526e+03
 9.4825001e+00   5.3040104e+03
 9.4871798e+00   5.3144344e+03
 9.4918604e+00   5.3176772e+03
 9.4965401e+00   5.3160809e+03
 9.5012197e+00   5.3150352e+03
 9.5059004e+00   5.3164174e+03
 9.5105801e+00   5.3119958e+03
 9.5152597e+00   5.3163238e+03
 9.5199404e+00   5.3007409e+03
 9.5246201e+00   5.2980255e+03
 9.5292997e+00   5.3112032e+03
 9.5339804e+00   5.2872412e+03
 9.5386600e+00   5.2883801e+03
 9.5433397e+00   5.2899053e+03
 9.5480204e+00   5.2758977e+03
 9.5527000e+00   5.2910218e+03
 9.5573797e+00   5.2811570e+03
 9.5620604e+00   5.3051384e+03
 9.5667400e+00   5.2955874e+03
 9.5714197e+00   5.3007166e+03
 9.5761003e+00   5.3046172e+03
 9.5807800e+00   5.3001679e+03
 9.5854597e+00   5.2999144e+03
 9.5901403e+00   5.3069057e+03
 9.5948200e+00   5.3112454e+03
 9.5994997e+00   5.3090951e+03
 9.6041803e+00   5.3102620e+03
 9.6088600e+00   5.3161826e+03
 9.6135397e+00   5.3136054e+03
 9.6182203e+00   5.3070025e+03
 9.6229000e+00   5.2865170e+03
 9.6275797e+00   5.2899732e+03
 9.6322603e+00   5.2730348e+03
 9.6369400e+00   5.2641490e+03
 9.6416197e+00   5.2556476e+03
 9.6463003e+00   5.2367776e+03
 9.6509800e+00   5.2258031e+03
 9.6556597e+00   5.2280794e+03
 9.6603403e+00   5.1972854e+03
 9.6650200e+00   5.1929489e+03
 9.6696997e+00   5.1830136e+03
 9.6743803e+00   5.1759988e+03
 9.6790600e+00   5.1579648e+03
 9.6837397e+00   5.1495893e+03
 9.6884203e+00   5.1539306e+03
 9.6931000e+00   5.1409392e+03
 9.6977797e+00   5.1251326e+03
 9.7024603e+00   5.1088576e+03
 9.7071400e+00   5.0870651e+03
 9.7118196e+00   5.0904345e+03
 9.7165003e+00   5.0702737e+03
 9.7211800e+00   5.0532953e+03
 9.7258596e+00   5.0584585e+03
 9.7305403e+00   5.0391426e+03
 9.7352200e+00   5.0352301e+03
 9.7398996e+00   5.0256033e+03
 9.7445803e+00   5.0256650e+03
 9.7492599e+00   5.0339473e+03
 9.7539396e+00   5.0412000e+03
 9.7586203e+00   5.0279439e+03
 9.7632999e+00   5.0466101e+03
 9.7679796e+00   5.0465688e+03
 9.7726603e+00   5.0539563e+03
 9.7773399e+00   5.0871770e+03
 9.7820196e+00   5.0940791e+03
 9.7867002e+00   5.1268840e+03
 9.7913799e+00   5.1552813e+03
 9.7960596e+00   5.1918131e+03
 9.8007402e+00   5.2255244e+03
 9.8054199e+00   5.2994265e+03
 9.8100996e+00   5.3689411e+03
 9.8147802e+00   5.4702036e+03
 9.8194599e+00   5.6086572e+03
 9.8241396e+00   5.7476061e+03
 9.8288202e+00   5.8422307e+03
 9.8334999e+00   6.4505820e+03
 9.8381796e+00   6.9266927e+03
 9.8428602e+00   7.6222483e+03
 9.8475399e+00   8.5753709e+03
 9.8522196e+00   9.0628829e+03
 9.8569002e+00   1.0176623e+04
 9.8615799e+00   1.1094308e+04
 9.8662596e+00   1.1215225e+04
 9.8709402e+00   1.0554881e+04
 9.8756199e+00   9.7323199e+03
 9.8802996e+00   8.5813928e+03
 9.8849802e+00   7.2704187e+03
 9.8896599e+00   6.9872708e+03
 9.8943396e+00   6.6785636e+03
 9.8990202e+00   6.2699429e+03
 9.9036999e+00   5.9958671e+03
 9.9083796e+00   5.8022308e+03
 9.9130602e+00   5.7191384e+03
 9.9177399e+00   5.6385096e+03
 9.9224195e+00   5.5898028e+03
 9.9271002e+00   5.5667256e+03
 9.9317799e+00   5.5281106e+03
 9.9364595e+00   5.5039033e+03
 9.9411402e+00   5.4980862e+03
 9.9458199e+00   5.4783798e+03
 9.9504995e+00   5.4682188e+03
 9.9551802e+00   5.4665465e+03
 9.9598598e+00   5.4535508e+03
 9.9645395e+00   5.4531416e+03
 9.9692202e+00   5.4377087e+03
 9.9738998e+00   5.4368273e+03
 9.9785805e+00   5.4170208e+03
 9.9832602e+00   5.4225720e+03
 9.9879398e+00   5.4138100e+03
 9.9926205e+00   5.4131605e+03
 9.9973001e+00   5.4222075e+03
 1.0001980e+01   5.3958129e+03
 1.0006660e+01   5.3826412e+03
 1.0011340e+01   5.3707417e+03
 1.0016020e+01   5.3622320e+03
 1.0020700e+01   5.3482153e+03
 1.0025380e+01   5.3273005e+03
 1.0030060e+01   5.3115828e+03
 1.0034740e+01   5.2972143e+03
 1.0039420e+01   5.2695119e+03
 1.0044100e+01   5.2524004e+03
 1.0048780e+01   5.2440769e+03
 1.0053460e+01   5.2341336e+03
 1.0058140e+01   5.2266846e+03
 1.0062820e+01   5.2104416e+03
 1.0067500e+01   5.2028012e+03
 1.0072180e+01   5.1888782e+03
 1.0076860e+01   5.2066971e+03
 1.0081540e+01   5.1771211e+03
 1.0086220e+01   5.1744791e+03
 1.0090900e+01   5.1805109e+03
 1.0095580e+01   5.1755194e+03
 1.0100260e+01   5.1657910e+03
 1.0104940e+01   5.1749554e+03
 1.0109620e+01   5.1881379e+03
 1.0114300e+01   5.1638660e+03
 1.0118980e+01   5.1760189e+03
 1.0123660e+01   5.1636883e+03
 1.0128340e+01   5.1764502e+03
 1.0133020e+01   5.1746903e+03
 1.0137700e+01   5.1899256e+03
 1.0142380e+01   5.1960150e+03
 1.0147060e+01   5.2029323e+03
 1.0151740e+01   5.2018484e+03
 1.0156420e+01   5.2098385e+03
 1.0161100e+01   5.2085418e+03
 1.0165780e+01   5.2211352e+03
 1.0170460e+01   5.2381751e+03
 1.0175140e+01   5.2378838e+03
 1.0179820e+01   5.2303003e+03
 1.0184500e+01   5.2367513e+03
 1.0189180e+01   5.2251984e+03
 1.0193860e+01   5.2520844e+03
 1.0198540e+01   5.2556480e+03
 1.0203220e+01   5.2524158e+03
 1.0207900e+01   5.2710708e+03
 1.0212580e+01   5.2648960e+03
 1.0217260e+01   5.2719605e+03
 1.0221940e+01   5.2626450e+03
 1.0226620e+01   5.2781691e+03
 1.0231300e+01   5.2884709e+03
 1.0235980e+01   5.2867085e+03
 1.0240660e+01   5.2897170e+03
 1.0245340e+01   5.3028315e+03
 1.0250020e+01   5.3092049e+03
 1.0254700e+01   5.3370175e+03
 1.0259380e+01   5.3731424e+03
 1.0264060e+01   5.4510420e+03
 1.0268740e+01   5.5755528e+03
 1.0273420e+01   5.6023618e+03
 1.0278100e+01   5.5310472e+03
 1.0282780e+01   5.4987464e+03
 1.0287460e+01   5.6216311e+03
 1.0292140e+01   5.7526406e+03
 1.0296820e+01   5.8070427e+03
 1.0301500e+01   5.8874669e+03
 1.0306180e+01   5.9092066e+03
 1.0310860e+01   5.8050062e+03
 1.0315540e+01   5.7712829e+03
 1.0320220e+01   5.6221204e+03
 1.0324900e+01   5.7423796e+03
 1.0329580e+01   5.8265095e+03
 1.0334260e+01   5.5765022e+03
 1.0338940e+01   5.3940923e+03
 1.0343620e+01   5.2948495e+03
 1.0348300e+01   5.2417597e+03
 1.0352980e+01   5.1937750e+03
 1.0357660e+01   5.1621326e+03
 1.0362340e+01   5.1284311e+03
 1.0367020e+01   5.1215207e+03
 1.0371700e+01   5.1049424e+03
 1.0376380e+01   5.1145425e+03
 1.0381060e+01   5.1095148e+03
 1.0385740e+01   5.1076111e+03
 1.0390420e+01   5.0963114e+03
 1.0395100e+01   5.0982688e+03
 1.0399780e+01   5.1076054e+03
 1.0404460e+01   5.0924139e+03
 1.0409140e+01   5.1019576e+03
 1.0413820e+01   5.0937955e+03
 1.0418500e+01   5.1010605e+03
 1.0423180e+01   5.1147931e+03
 1.0427860e+01   5.1043423e+03
 1.0432540e+01   5.0908559e+03
 1.0437220e+01   5.1138475e+03
 1.0441900e+01   5.1237530e+03
 1.0446580e+01   5.1323299e+03
 1.0451260e+01   5.1202902e+03
 1.0455940e+01   5.1314118e+03
 1.0460620e+01   5.1269263e+03
 1.0465300e+01   5.1367064e+03
 1.0469980e+01   5.1353819e+03
 1.0474660e+01   5.1461540e+03
 1.0479340e+01   5.1621381e+03
 1.0484020e+01   5.1581118e+03
 1.0488700e+01   5.1531378e+03
 1.0493380e+01   5.1623514e+03
 1.0498060e+01   5.1636319e+03
 1.0502740e+01   5.1643639e+03
 1.0507420e+01   5.1771627e+03
 1.0512100e+01   5.1696104e+03
 1.0516780e+01   5.1736715e+03
 1.0521460e+01   5.1587710e+03
 1.0526140e+01   5.1633578e+03
 1.0530820e+01   5.1556891e+03
 1.0535500e+01   5.1670613e+03
 1.0540180e+01   5.1705592e+03
 1.0544860e+01   5.1583968e+03
 1.0549540e+01   5.1413628e+03
 1.0554220e+01   5.1345360e+03
 1.0558900e+01   5.1358894e+03
 1.0563580e+01   5.1084775e+03
 1.0568260e+01   5.1215584e+03
 1.0572940e+01   5.1105241e+03
 1.0577620e+01   5.0947027e+03
 1.0582300e+01   5.0896939e+03
 1.0586980e+01   5.0881824e+03
 1.0591660e+01   5.0757749e+03
 1.0596340e+01   5.0690977e+03
 1.0601020e+01   5.0549221e+03
 1.0605700e+01   5.0476189e+03
 1.0610380e+01   5.0497477e+03
 1.0615060e+01   5.0407221e+03
 1.0619740e+01   5.0471624e+03
 1.0624420e+01   5.0281461e+03
 1.0629100e+01   5.0385284e+03
 1.0633780e+01   5.0227681e+03
 1.0638460e+01   5.0191720e+03
 1.0643140e+01   5.0144696e+03
 1.0647820e+01   5.0135550e+03
 1.0652500e+01   5.0201810e+03
 1.0657180e+01   5.0179733e+03
 1.0661860e+01   5.0105888e+03
 1.0666540e+01   5.0111350e+03
 1.0671220e+01   5.0086636e+03
 1.0675900e+01   5.0053041e+03
 1.0680580e+01   5.0111611e+03
 1.0685260e+01   4.9996736e+03
 1.0689940e+01   5.0185818e+03
 1.0694620e+01   5.0084043e+03
 1.0699300e+01   5.0218224e+03
 1.0703980e+01   5.0077952e+03
 1.0708660e+01   5.0228685e+03
 1.0713340e+01   5.0383089e+03
 1.0718020e+01   5.0222477e+03
 1.0722700e+01   5.0282685e+03
 1.0727380e+01   5.0585389e+03
 1.0732060e+01   5.0327275e+03
 1.0736740e+01   5.0629978e+03
 1.0741420e+01   5.0630521e+03
 1.0746100e+01   5.0771875e+03
 1.0750780e+01   5.0920601e+03
 1.0755460e+01   5.0774970e+03
 1.0760140e+01   5.0792173e+03
 1.0764820e+01   5.0898983e+03
 1.0769500e+01   5.0807028e+03
 1.0774180e+01   5.0758114e+03
 1.0778860e+01   5.0926158e+03
 1.0783540e+01   5.0694273e+03
 1.0788220e+01   5.0835346e+03
 1.0792900e+01   5.0561182e+03
 1.0797580e+01   5.0769598e+03
 1.0802260e+01   5.0744817e+03
 1.0806940e+01   5.0436863e+03
 1.0811620e+01   5.0572482e+03
 1.0816300e+01   5.0440874e+03
 1.0820980e+01   5.0448188e+03
 1.0825660e+01   5.0421092e+03
 1.0830340e+01   5.0406642e+03
 1.0835020e+01   5.0307800e+03
 1.0839700e+01   5.0263866e+03
 1.0844380e+01   5.0300306e+03
 1.0849060e+01   5.0128711e+03
 1.0853740e+01   5.0084886e+03
 1.0858420e+01   5.0065649e+03
 1.0863100e+01   5.0107433e+03
 1.0867780e+01   5.0109526e+03
 1.0872460e+01   4.9955682e+03
 1.0877140e+01   4.9848148e+03
 1.0881820e+01   4.9760490e+03
 1.0886500e+01   4.9653159e+03
 1.0891180e+01   4.9489869e+03
 1.0895860e+01   4.9372408e+03
 1.0900540e+01   4.9324269e+03
 1.0905220e+01   4.9150778e+03
 1.0909900e+01   4.9169166e+03
 1.0914580e+01   4.9005550e+03
 1.0919260e+01   4.8894125e+03
 1.0923940e+01   4.8761639e+03
 1.0928620e+01   4.8698493e+03
 1.0933300e+01   4.8571283e+03
 1.0937980e+01   4.8596681e+03
 1.0942660e+01   4.8450346e+03
 1.0947340e+01   4.8398297e+03
 1.0952020e+01   4.8335036e+03
 1.0956700e+01   4.8224906e+03
 1.0961380e+01   4.8245763e+03
 1.0966060e+01   4.8220123e+03
 1.0970740e+01   4.8139347e+03
 1.0975420e+01   4.8101761e+03
 1.0980100e+01   4.7982107e+03
 1.0984780e+01   4.7937332e+03
 1.0989460e+01   4.7957872e+03
 1.0994140e+01   4.7793643e+03
 1.0998820e+01   4.7883062e+03
 1.1003500e+01   4.7721043e+03
 1.1008180e+01   4.7809603e+03
 1.1012860e+01   4.7849971e+03
 1.1017540e+01   4.7843483e+03
 1.1022220e+01   4.7873071e+03
 1.1026900e+01   4.7863942e+03
 1.1031580e+01   4.7845779e+03
 1.1036260e+01   4.8029251e+03
 1.1040940e+01   4.7996043e+03
 1.1045620e+01   4.8040856e+03
 1.1050300e+01   4.8169544e+03
 1.1054980e+01   4.8077087e+03
 1.1059660e+01   4.8259352e+03
 1.1064340e+01   4.8251802e+03
 1.1069020e+01   4.8330076e+03
 1.1073700e+01   4.8499593e+03
 1.1078380e+01   4.8588384e+03
 1.1083060e+01   4.8686046e+03
 1.1087740e+01   4.8817631e+03
 1.1092420e+01   4.8953704e+03
 1.1097100e+01   4.9072956e+03
 1.1101780e+01   4.9422282e+03
 1.1106460e+01   4.9501156e+03
 1.1111140e+01   4.9813649e+03
 1.1115820e+01   4.9931381e+03
 1.1120500e+01   5.0186256e+03
 1.1125180e+01   5.0193742e+03
 1.1129860e+01   5.0301503e+03
 1.1134540e+01   5.0376392e+03
 1.1139220e+01   5.0285192e+03
 1.1143900e+01   5.0295143e+03
 1.1148580e+01   5.0287621e+03
 1.1153260e+01   5.0196786e+03
 1.1157940e+01   5.0111812e+03
 1.1162620e+01   4.9951494e+03
 1.1167300e+01   4.9849613e+03
 1.1171980e+01   4.9813125e+03
 1.1176660e+01   4.9530340e+03
 1.1181340e+01   4.9516726e+03
 1.1186020e+01   4.9197073e+03
 1.1190700e+01   4.9083012e+03
 1.1195380e+01   4.9044247e+03
 1.1200060e+01   4.8734323e+03
 1.1204740e+01   4.8788150e+03
 1.1209420e+01   4.8659617e+03
 1.1214100e+01   4.8609296e+03
 1.1218780e+01   4.8514808e+03
 1.1223460e+01   4.8450017e+03
 1.1228140e+01   4.8371238e+03
 1.1232820e+01   4.8406541e+03
 1.1237500e+01   4.8228674e+03
 1.1242180e+01   4.8256774e+03
 1.1246860e+01   4.8062247e+03
 1.1251540e+01   4.8009079e+03
 1.1256220e+01   4.7951325e+03
 1.1260900e+01   4.7777230e+03
 1.1265580e+01   4.7776483e+03
 1.1270260e+01   4.7570420e+03
 1.1274940e+01   4.7542511e+03
 1.1279620e+01   4.7557472e+03
 1.1284300e+01   4.7332310e+03
 1.1288980e+01   4.7248971e+03
 1.1293660e+01   4.7272398e+03
 1.1298340e+01   4.7051232e+03
 1.1303020e+01   4.7100835e+03
 1.1307700e+01   4.7027564e+03
 1.1312380e+01   4.6866649e+03
 1.1317060e+01   4.6831469e+03
 1.1321740e+01   4.6686401e+03
 1.1326420e+01   4.6640874e+03
 1.1331100e+01   4.6594536e+03
 1.1335780e+01   4.6437081e+03
 1.1340460e+01   4.6409725e+03
 1.1345140e+01   4.6247881e+03
 1.1349820e+01   4.6179123e+03
 1.1354500e+01   4.6244572e+03
 1.1359180e+01   4.6020548e+03
 1.1363860e+01   4.6057207e+03
 1.1368540e+01   4.5855857e+03
 1.1373220e+01   4.5706202e+03
 1.1377900e+01   4.5810553e+03
 1.1382580e+01   4.5689273e+03
 1.1387260e+01   4.5618793e+03
 1.1391940e+01   4.5625135e+03
 1.1396620e+01   4.5416484e+03
 1.1401300e+01   4.5432622e+03
 1.1405980e+01   4.5465853e+03
 1.1410660e+01   4.5310010e+03
 1.1415340e+01   4.5373367e+03
 1.1420020e+01   4.5313884e+03
 1.1424700e+01   4.5292831e+03
 1.1429380e+01   4.5309162e+03
 1.1434060e+01   4.5099051e+03
 1.1438740e+01   4.5123549e+03
 1.1443420e+01   4.5178506e+03
 1.1448100e+01   4.5086556e+03
 1.1452780e+01   4.5105703e+03
 1.1457460e+01   4.5013724e+03
 1.1462140e+01   4.4979668e+03
 1.1466820e+01   4.5107140e+03
 1.1471500e+01   4.4892886e+03
 1.1476180e+01   4.5053784e+03
 1.1480860e+01   4.4912302e+03
 1.1485540e+01   4.4905923e+03
 1.1490220e+01   4.4853619e+03
 1.1494900e+01   4.4832150e+03
 1.1499580e+01   4.4914096e+03
 1.1504260e+01   4.4790090e+03
 1.1508940e+01   4.4752256e+03
 1.1513620e+01   4.4748934e+03
 1.1518300e+01   4.4617565e+03
 1.1522980e+01   4.4531020e+03
 1.1527660e+01   4.4615116e+03
 1.1532340e+01   4.4383156e+03
 1.1537020e+01   4.4390650e+03
 1.1541700e+01   4.4258819e+03
 1.1546380e+01   4.4258611e+03
 1.1551060e+01   4.4226112e+03
 1.1555740e+01   4.4057486e+03
 1.1560420e+01   4.4151428e+03
 1.1565100e+01   4.4083817e+03
 1.1569780e+01   4.3976389e+03
 1.1574460e+01   4.4021364e+03
 1.1579140e+01   4.4011346e+03
 1.1583820e+01   4.3941805e+03
 1.1588500e+01   4.3932603e+03
 1.1593180e+01   4.3881000e+03
 1.1597860e+01   4.3901923e+03
 1.1602540e+01   4.3826353e+03
 1.1607220e+01   4.3929278e+03
 1.1611900e+01   4.3823417e+03
 1.1616580e+01   4.3764840e+03
 1.1621260e+01   4.3836455e+03
 1.1625940e+01   4.3785413e+03
 1.1630620e+01   4.3740356e+03
 1.1635300e+01   4.3830209e+03
 1.1639980e+01   4.3775672e+03
 1.1644660e+01   4.3760353e+03
 1.1649340e+01   4.3708098e+03
 1.1654020e+01   4.3615435e+03
 1.1658700e+01   4.3516066e+03
 1.1663380e+01   4.3545492e+03
 1.1668060e+01   4.3420762e+03
 1.1672740e+01   4.3470024e+03
 1.1677420e+01   4.3407519e+03
 1.1682100e+01   4.3398192e+03
 1.1686780e+01   4.3342528e+03
 1.1691460e+01   4.3335806e+03
 1.1696140e+01   4.3326707e+03
 1.1700820e+01   4.3290319e+03
 1.1705500e+01   4.3291924e+03
 1.1710180e+01   4.3329721e+03
 1.1714860e+01   4.3255871e+03
 1.1719540e+01   4.3244559e+03
 1.1724220e+01   4.3208125e+03
 1.1728900e+01   4.3156562e+03
 1.1733580e+01   4.3285896e+03
 1.1738260e+01   4.3176206e+03
 1.1742940e+01   4.3167816e+03
 1.1747620e+01   4.3223407e+03
 1.1752300e+01   4.3247152e+03
 1.1756980e+01   4.3192407e+03
 1.1761660e+01   4.3267551e+03
 1.1766340e+01   4.3266042e+03
 1.1771020e+01   4.3260870e+03
 1.1775700e+01   4.3182589e+03
 1.1780380e+01   4.3259668e+03
 1.1785060e+01   4.3283142e+03
 1.1789740e+01   4.3390780e+03
 1.1794420e+01   4.3328922e+03
 1.1799100e+01   4.3309377e+03
 1.1803780e+01   4.3356300e+03
 1.1808460e+01   4.3355249e+03
 1.1813140e+01   4.3366555e+03
 1.1817820e+01   4.3436380e+03
 1.1822500e+01   4.3498661e+03
 1.1827180e+01   4.3487405e+03
 1.1831860e+01   4.3424723e+03
 1.1836540e+01   4.3476891e+03
 1.1841220e+01   4.3527441e+03
 1.1845900e+01   4.3688989e+03
 1.1850580e+01   4.3656837e+03
 1.1855260e+01   4.3760321e+03
 1.1859940e+01   4.3951293e+03
 1.1864620e+01   4.4059211e+03
 1.1869300e+01   4.4300645e+03
 1.1873980e+01   4.4640410e+03
 1.1878660e+01   4.4756026e+03
 1.1883340e+01   4.4887065e+03
 1.1888020e+01   4.5036581e+03
 1.1892700e+01   4.5322610e+03
 1.1897380e+01   4.5735954e+03
 1.1902060e+01   4.5840834e+03
 1.1906740e+01   4.6040686e+03
 1.1911420e+01   4.5910761e+03
 1.1916100e+01   4.5874158e+03
 1.1920780e+01   4.5351567e+03
 1.1925460e+01   4.5112642e+03
 1.1930140e+01   4.5137021e+03
 1.1934820e+01   4.4898303e+03
 1.1939500e+01   4.4967468e+03
 1.1944180e+01   4.4765865e+03
 1.1948860e+01   4.4671332e+03
 1.1953540e+01   4.4621719e+03
 1.1958220e+01   4.4620186e+03
 1.1962900e+01   4.4581765e+03
 1.1967580e+01   4.4748619e+03
 1.1972260e+01   4.4638898e+03
 1.1976940e+01   4.4710687e+03
 1.1981620e+01   4.4834328e+03
 1.1986300e+01   4.4898393e+03
 1.1990980e+01   4.4998489e+03
 1.1995660e+01   4.4909888e+03
 1.2000340e+01   4.4992455e+03
 1.2005020e+01   4.5004829e+03
 1.2009700e+01   4.5109470e+03
 1.2014380e+01   4.5047943e+03
 1.2019060e+01   4.5120800e+03
 1.2023740e+01   4.4856309e+03
 1.2028420e+01   4.5009430e+03
 1.2033100e+01   4.4855949e+03
 1.2037780e+01   4.4992842e+03
 1.2042460e+01   4.4855220e+03
 1.2047140e+01   4.4862994e+03
 1.2051820e+01   4.4886318e+03
 1.2056500e+01   4.4724905e+03
 1.2061180e+01   4.4770309e+03
 1.2065860e+01   4.4839007e+03
 1.2070540e+01   4.4814589e+03
 1.2075220e+01   4.4695222e+03
 1.2079900e+01   4.4805353e+03
 1.2084580e+01   4.4671828e+03
 1.2089260e+01   4.4695728e+03
 1.2093940e+01   4.4734123e+03
 1.2098620e+01   4.4682928e+03
 1.2103300e+01   4.4538317e+03
 1.2107980e+01   4.4484054e+03
 1.2112660e+01   4.4496251e+03
 1.2117340e+01   4.4444848e+03
 1.2122020e+01   4.4243850e+03
 1.2126700e+01   4.4078586e+03
 1.2131380e+01   4.3920206e+03
 1.2136060e+01   4.3760422e+03
 1.2140740e+01   4.3655450e+03
 1.2145420e+01   4.3448236e+03
 1.2150100e+01   4.3219055e+03
 1.2154780e+01   4.3067722e+03
 1.2159460e+01   4.2816976e+03
 1.2164140e+01   4.2673152e+03
 1.2168820e+01   4.2446653e+03
 1.2173500e+01   4.2333804e+03
 1.2178180e+01   4.2093609e+03
 1.2182860e+01   4.2007387e+03
 1.2187540e+01   4.1915771e+03
 1.2192220e+01   4.1778455e+03
 1.2196900e+01   4.1739809e+03
 1.2201580e+01   4.1502901e+03
 1.2206260e+01   4.1508586e+03
 1.2210940e+01   4.1434226e+03
 1.2215620e+01   4.1304485e+03
 1.2220300e+01   4.1239891e+03
 1.2224980e+01   4.1254066e+03
 1.2229660e+01   4.1131629e+03
 1.2234340e+01   4.1212879e+03
 1.2239020e+01   4.1048296e+03
 1.2243700e+01   4.1050905e+03
 1.2248380e+01   4.0959104e+03
 1.2253060e+01   4.0974827e+03
 1.2257740e+01   4.0906059e+03
 1.2262420e+01   4.0947949e+03
 1.2267100e+01   4.0862174e+03
 1.2271780e+01   4.0826072e+03
 1.2276460e+01   4.0894472e+03
 1.2281140e+01   4.0836927e+03
 1.2285820e+01   4.0883284e+03
 1.2290500e+01   4.0801444e+03
 1.2295180e+01   4.0845873e+03
 1.2299860e+01   4.0745693e+03
 1.2304540e+01   4.0832095e+03
 1.2309220e+01   4.0879741e+03
 1.2313900e+01   4.0922687e+03
 1.2318580e+01   4.0760767e+03
 1.2323260e+01   4.0822501e+03
 1.2327940e+01   4.0774607e+03
 1.2332620e+01   4.0812086e+03
 1.2337300e+01   4.0823237e+03
 1.2341980e+01   4.0906866e+03
 1.2346660e+01   4.0840741e+03
 1.2351340e+01   4.0929832e+03
 1.2356020e+01   4.0989408e+03
 1.2360700e+01   4.0986207e+03
 1.2365380e+01   4.0994640e+03
 1.2370060e+01   4.1036061e+03
 1.2374740e+01   4.1231799e+03
 1.2379420e+01   4.1100988e+03
 1.2384100e+01   4.1300426e+03
 1.2388780e+01   4.1215381e+03
 1.2393460e+01   4.1305302e+03
 1.2398140e+01   4.1318365e+03
 1.2402820e+01   4.1270975e+03
 1.2407500e+01   4.1339535e+03
 1.2412180e+01   4.1258240e+03
 1.2416860e+01   4.1355877e+03
 1.2421540e+01   4.1416940e+03
 1.2426220e+01   4.1448510e+03
 1.2430900e+01   4.1433746e+03
 1.2435580e+01   4.1377804e+03
 1.2440260e+01   4.1516615e+03
 1.2444940e+01   4.1501547e+03
 1.2449620e+01   4.1653022e+03
 1.2454300e+01   4.1515936e+03
 1.2458980e+01   4.1701787e+03
 1.2463660e+01   4.1694025e+03
 1.2468340e+01   4.1820583e+03
 1.2473020e+01   4.1876481e+03
 1.2477700e+01   4.1871142e+03
 1.2482380e+01   4.1884961e+03
 1.2487060e+01   4.1905187e+03
 1.2491740e+01   4.1837603e+03
 1.2496420e+01   4.1903854e+03
 1.2501100e+01   4.1846770e+03
 1.2505780e+01   4.1785820e+03
 1.2510460e+01   4.1886743e+03
 1.2515140e+01   4.1785398e+03
 1.2519820e+01   4.1789554e+03
 1.2524500e+01   4.1684250e+03
 1.2529180e+01   4.1650979e+03
 1.2533860e+01   4.1706161e+03
 1.2538540e+01   4.1657235e+03
 1.2543220e+01   4.1663108e+03
 1.2547900e+01   4.1722489e+03
 1.2552580e+01   4.1656168e+03
 1.2557260e+01   4.1705498e+03
 1.2561940e+01   4.1725672e+03
 1.2566620e+01   4.1751011e+03
 1.2571300e+01   4.1796234e+03
 1.2575980e+01   4.1839115e+03
 1.2580660e+01   4.1967101e+03
 1.2585340e+01   4.1982100e+03
 1.2590020e+01   4.2089565e+03
 1.2594700e+01   4.2034993e+03
 1.2599380e+01   4.2140344e+03
 1.2604060e+01   4.2227282e+03
 1.2608740e+01   4.2193972e+03
 1.2613420e+01   4.2346546e+03
 1.2618100e+01   4.2268288e+03
 1.2622780e+01   4.2456754e+03
 1.2627460e+01   4.2390862e+03
 1.2632140e+01   4.2543297e+03
 1.2636820e+01   4.2484274e+03
 1.2641500e+01   4.2509382e+03
 1.2646180e+01   4.2470118e+03
 1.2650860e+01   4.2429467e+03
 1.2655540e+01   4.2467562e+03
 1.2660220e+01   4.2501816e+03
 1.2664900e+01   4.2425635e+03
 1.2669580e+01   4.2383001e+03
 1.2674260e+01   4.2263796e+03
 1.2678940e+01   4.2296620e+03
 1.2683620e+01   4.2234788e+03
 1.2688300e+01   4.2154282e+03
 1.2692980e+01   4.2190643e+03
 1.2697660e+01   4.2137045e+03
