MA2b-00006.tif Azm= 0.00
2-Theta Angle (Degrees)
Intensity
       2500
 1.0023400e+00   7.9678715e+03
 1.0070200e+00   7.9210604e+03
 1.0117000e+00   7.8951389e+03
 1.0163800e+00   7.8620613e+03
 1.0210600e+00   7.8253861e+03
 1.0257400e+00   7.7811444e+03
 1.0304199e+00   7.7775666e+03
 1.0351000e+00   7.7189377e+03
 1.0397800e+00   7.7422921e+03
 1.0444601e+00   7.6914123e+03
 1.0491400e+00   7.6218063e+03
 1.0538200e+00   7.6938230e+03
 1.0585001e+00   7.5977740e+03
 1.0631800e+00   7.6036410e+03
 1.0678600e+00   7.5883590e+03
 1.0725400e+00   7.5691172e+03
 1.0772200e+00   7.5181509e+03
 1.0819000e+00   7.5389386e+03
 1.0865800e+00   7.4670672e+03
 1.0912600e+00   7.5076301e+03
 1.0959400e+00   7.4609387e+03
 1.1006200e+00   7.4587342e+03
 1.1052999e+00   7.4520582e+03
 1.1099800e+00   7.3988090e+03
 1.1146600e+00   7.4102623e+03
 1.1193399e+00   7.3983467e+03
 1.1240200e+00   7.3614104e+03
 1.1287000e+00   7.3336920e+03
 1.1333801e+00   7.3708467e+03
 1.1380600e+00   7.2884206e+03
 1.1427400e+00   7.3261778e+03
 1.1474200e+00   7.2790672e+03
 1.1521000e+00   7.2876143e+03
 1.1567800e+00   7.2663790e+03
 1.1614600e+00   7.2531171e+03
 1.1661400e+00   7.1964156e+03
 1.1708200e+00   7.2193272e+03
 1.1755000e+00   7.2170503e+03
 1.1801800e+00   7.1941051e+03
 1.1848600e+00   7.2128165e+03
 1.1895400e+00   7.1832828e+03
 1.1942199e+00   7.1685746e+03
 1.1989000e+00   7.1574219e+03
 1.2035800e+00   7.1490068e+03
 1.2082601e+00   7.1437472e+03
 1.2129400e+00   7.1396140e+03
 1.2176200e+00   7.1615521e+03
 1.2223001e+00   7.1391654e+03
 1.2269800e+00   7.1405916e+03
 1.2316600e+00   7.0943162e+03
 1.2363400e+00   7.1145979e+03
 1.2410200e+00   7.1253574e+03
 1.2457000e+00   7.1236251e+03
 1.2503800e+00   7.1051597e+03
 1.2550600e+00   7.1171648e+03
 1.2597400e+00   7.1188470e+03
 1.2644200e+00   7.1222529e+03
 1.2691000e+00   7.0891521e+03
 1.2737800e+00   7.1050742e+03
 1.2784600e+00   7.1025493e+03
 1.2831399e+00   7.0983567e+03
 1.2878200e+00   7.1219824e+03
 1.2925000e+00   7.0791074e+03
 1.2971801e+00   7.1165919e+03
 1.3018600e+00   7.1254105e+03
 1.3065400e+00   7.1239139e+03
 1.3112200e+00   7.1088612e+03
 1.3159000e+00   7.1118912e+03
 1.3205800e+00   7.1329932e+03
 1.3252600e+00   7.1314563e+03
 1.3299400e+00   7.1143682e+03
 1.3346200e+00   7.1593440e+03
 1.3393000e+00   7.1642286e+03
 1.3439800e+00   7.1336364e+03
 1.3486600e+00   7.1572965e+03
 1.3533400e+00   7.1552010e+03
 1.3580199e+00   7.1680873e+03
 1.3627000e+00   7.1918167e+03
 1.3673800e+00   7.1792235e+03
 1.3720599e+00   7.1917537e+03
 1.3767400e+00   7.2106029e+03
 1.3814200e+00   7.2000115e+03
 1.3861001e+00   7.2256642e+03
 1.3907800e+00   7.2109753e+03
 1.3954600e+00   7.2623600e+03
 1.4001400e+00   7.2441310e+03
 1.4048200e+00   7.3032758e+03
 1.4095000e+00   7.3033129e+03
 1.4141800e+00   7.3203307e+03
 1.4188600e+00   7.3389554e+03
 1.4235400e+00   7.3331583e+03
 1.4282200e+00   7.3621426e+03
 1.4329000e+00   7.3866496e+03
 1.4375800e+00   7.3882839e+03
 1.4422600e+00   7.4139078e+03
 1.4469399e+00   7.4338101e+03
 1.4516200e+00   7.4780682e+03
 1.4563000e+00   7.4976256e+03
 1.4609801e+00   7.5131229e+03
 1.4656600e+00   7.5525097e+03
 1.4703400e+00   7.5653030e+03
 1.4750201e+00   7.6043692e+03
 1.4797000e+00   7.6361017e+03
 1.4843800e+00   7.6522420e+03
 1.4890600e+00   7.6577735e+03
 1.4937400e+00   7.6679729e+03
 1.4984200e+00   7.6778604e+03
 1.5031000e+00   7.7154859e+03
 1.5077800e+00   7.7193426e+03
 1.5124600e+00   7.7445749e+03
 1.5171400e+00   7.7678919e+03
 1.5218199e+00   7.7796178e+03
 1.5265000e+00   7.7589563e+03
 1.5311800e+00   7.7740017e+03
 1.5358599e+00   7.7418746e+03
 1.5405400e+00   7.7712374e+03
 1.5452200e+00   7.7329575e+03
 1.5499001e+00   7.7810462e+03
 1.5545800e+00   7.7162511e+03
 1.5592600e+00   7.7360042e+03
 1.5639400e+00   7.7291409e+03
 1.5686200e+00   7.7514972e+03
 1.5733000e+00   7.6936565e+03
 1.5779800e+00   7.7156484e+03
 1.5826600e+00   7.7043532e+03
 1.5873400e+00   7.6845050e+03
 1.5920200e+00   7.6739736e+03
 1.5967000e+00   7.6673447e+03
 1.6013800e+00   7.6671078e+03
 1.6060600e+00   7.7037858e+03
 1.6107399e+00   7.6604125e+03
 1.6154200e+00   7.6858028e+03
 1.6201000e+00   7.6695562e+03
 1.6247801e+00   7.6703080e+03
 1.6294600e+00   7.6819036e+03
 1.6341400e+00   7.6750402e+03
 1.6388201e+00   7.6848438e+03
 1.6435000e+00   7.6907990e+03
 1.6481800e+00   7.6588388e+03
 1.6528600e+00   7.6699883e+03
 1.6575400e+00   7.7009582e+03
 1.6622200e+00   7.6940028e+03
 1.6669000e+00   7.6807983e+03
 1.6715800e+00   7.6956234e+03
 1.6762600e+00   7.6562362e+03
 1.6809400e+00   7.6934290e+03
 1.6856200e+00   7.6967188e+03
 1.6903000e+00   7.7016104e+03
 1.6949800e+00   7.7473488e+03
 1.6996599e+00   7.7003071e+03
 1.7043400e+00   7.7386829e+03
 1.7090200e+00   7.7207394e+03
 1.7137001e+00   7.7366592e+03
 1.7183800e+00   7.7344917e+03
 1.7230600e+00   7.7433766e+03
 1.7277400e+00   7.7217077e+03
 1.7324200e+00   7.7532967e+03
 1.7371000e+00   7.7505676e+03
 1.7417800e+00   7.7479523e+03
 1.7464600e+00   7.7535548e+03
 1.7511400e+00   7.7742503e+03
 1.7558200e+00   7.7764482e+03
 1.7605000e+00   7.7794170e+03
 1.7651800e+00   7.7746532e+03
 1.7698600e+00   7.8182895e+03
 1.7745399e+00   7.7960706e+03
 1.7792200e+00   7.8188761e+03
 1.7839000e+00   7.8433526e+03
 1.7885799e+00   7.8383207e+03
 1.7932600e+00   7.8417495e+03
 1.7979400e+00   7.8653273e+03
 1.8026201e+00   7.8688594e+03
 1.8073000e+00   7.8839331e+03
 1.8119800e+00   7.9057314e+03
 1.8166600e+00   7.9008995e+03
 1.8213400e+00   7.9194736e+03
 1.8260200e+00   7.9377892e+03
 1.8307000e+00   7.9632551e+03
 1.8353800e+00   7.9910134e+03
 1.8400600e+00   8.0080899e+03
 1.8447400e+00   8.0153681e+03
 1.8494200e+00   8.0654000e+03
 1.8541000e+00   8.0758739e+03
 1.8587800e+00   8.0834932e+03
 1.8634599e+00   8.1436704e+03
 1.8681400e+00   8.1183823e+03
 1.8728200e+00   8.1562042e+03
 1.8775001e+00   8.1574383e+03
 1.8821800e+00   8.2039179e+03
 1.8868600e+00   8.2061889e+03
 1.8915401e+00   8.2029217e+03
 1.8962200e+00   8.2477067e+03
 1.9009000e+00   8.2742972e+03
 1.9055800e+00   8.2956368e+03
 1.9102600e+00   8.3043869e+03
 1.9149400e+00   8.3071740e+03
 1.9196200e+00   8.3638428e+03
 1.9243000e+00   8.3812795e+03
 1.9289800e+00   8.4031780e+03
 1.9336600e+00   8.4718987e+03
 1.9383399e+00   8.4629024e+03
 1.9430200e+00   8.4833022e+03
 1.9477000e+00   8.4937893e+03
 1.9523799e+00   8.5433176e+03
 1.9570600e+00   8.5656235e+03
 1.9617400e+00   8.5858428e+03
 1.9664201e+00   8.6221625e+03
 1.9711000e+00   8.6434051e+03
 1.9757800e+00   8.6720033e+03
 1.9804600e+00   8.7030856e+03
 1.9851400e+00   8.7140929e+03
 1.9898200e+00   8.7679035e+03
 1.9945000e+00   8.7631658e+03
 1.9991800e+00   8.7804751e+03
 2.0038600e+00   8.8363386e+03
 2.0085399e+00   8.8349237e+03
 2.0132201e+00   8.8927842e+03
 2.0179000e+00   8.8956967e+03
 2.0225799e+00   8.9423583e+03
 2.0272601e+00   8.9436164e+03
 2.0319400e+00   9.0007348e+03
 2.0366199e+00   9.0270291e+03
 2.0413001e+00   9.0676909e+03
 2.0459800e+00   9.0994177e+03
 2.0506599e+00   9.1365972e+03
 2.0553401e+00   9.1600849e+03
 2.0600200e+00   9.2150978e+03
 2.0646999e+00   9.2661168e+03
 2.0693800e+00   9.3185408e+03
 2.0740600e+00   9.4012352e+03
 2.0787399e+00   9.5169760e+03
 2.0834200e+00   9.6489362e+03
 2.0881000e+00   9.7712844e+03
 2.0927801e+00   9.9948385e+03
 2.0974600e+00   1.0297988e+04
 2.1021399e+00   1.0691694e+04
 2.1068201e+00   1.1229767e+04
 2.1115000e+00   1.2126554e+04
 2.1161799e+00   1.3334160e+04
 2.1208601e+00   1.5071734e+04
 2.1255400e+00   1.7367785e+04
 2.1302199e+00   2.0280174e+04
 2.1349001e+00   2.3783100e+04
 2.1395800e+00   2.6622179e+04
 2.1442599e+00   2.9178776e+04
 2.1489401e+00   3.0681343e+04
 2.1536200e+00   3.0928386e+04
 2.1582999e+00   3.0017592e+04
 2.1629801e+00   2.8324007e+04
 2.1676600e+00   2.6127694e+04
 2.1723399e+00   2.3882233e+04
 2.1770201e+00   2.1821408e+04
 2.1817000e+00   1.9938518e+04
 2.1863799e+00   1.8361337e+04
 2.1910601e+00   1.6983275e+04
 2.1957400e+00   1.5860114e+04
 2.2004199e+00   1.4838650e+04
 2.2051001e+00   1.4062577e+04
 2.2097800e+00   1.3365378e+04
 2.2144599e+00   1.2892061e+04
 2.2191401e+00   1.2480084e+04
 2.2238200e+00   1.2221108e+04
 2.2284999e+00   1.2002219e+04
 2.2331800e+00   1.1842324e+04
 2.2378600e+00   1.1688697e+04
 2.2425399e+00   1.1539629e+04
 2.2472200e+00   1.1377707e+04
 2.2519000e+00   1.1236705e+04
 2.2565801e+00   1.1041982e+04
 2.2612600e+00   1.0887167e+04
 2.2659400e+00   1.0748003e+04
 2.2706201e+00   1.0624157e+04
 2.2753000e+00   1.0555863e+04
 2.2799799e+00   1.0505202e+04
 2.2846601e+00   1.0436549e+04
 2.2893400e+00   1.0443846e+04
 2.2940199e+00   1.0436686e+04
 2.2987001e+00   1.0448766e+04
 2.3033800e+00   1.0448132e+04
 2.3080599e+00   1.0463103e+04
 2.3127401e+00   1.0469052e+04
 2.3174200e+00   1.0517847e+04
 2.3220999e+00   1.0526934e+04
 2.3267801e+00   1.0569532e+04
 2.3314600e+00   1.0577600e+04
 2.3361399e+00   1.0601750e+04
 2.3408201e+00   1.0606950e+04
 2.3455000e+00   1.0619244e+04
 2.3501799e+00   1.0647521e+04
 2.3548601e+00   1.0681786e+04
 2.3595400e+00   1.0716869e+04
 2.3642199e+00   1.0741713e+04
 2.3689001e+00   1.0763619e+04
 2.3735800e+00   1.0827561e+04
 2.3782599e+00   1.0852718e+04
 2.3829401e+00   1.0874798e+04
 2.3876200e+00   1.0930738e+04
 2.3922999e+00   1.0939573e+04
 2.3969800e+00   1.0994527e+04
 2.4016600e+00   1.1006406e+04
 2.4063399e+00   1.1054454e+04
 2.4110200e+00   1.1115300e+04
 2.4157000e+00   1.1112155e+04
 2.4203801e+00   1.1152508e+04
 2.4250600e+00   1.1182396e+04
 2.4297400e+00   1.1236865e+04
 2.4344201e+00   1.1260692e+04
 2.4391000e+00   1.1306496e+04
 2.4437799e+00   1.1355249e+04
 2.4484601e+00   1.1392111e+04
 2.4531400e+00   1.1407038e+04
 2.4578199e+00   1.1433000e+04
 2.4625001e+00   1.1484000e+04
 2.4671800e+00   1.1512475e+04
 2.4718599e+00   1.1555821e+04
 2.4765401e+00   1.1595064e+04
 2.4812200e+00   1.1642654e+04
 2.4858999e+00   1.1677689e+04
 2.4905801e+00   1.1680915e+04
 2.4952600e+00   1.1750499e+04
 2.4999399e+00   1.1784779e+04
 2.5046201e+00   1.1817904e+04
 2.5093000e+00   1.1847396e+04
 2.5139799e+00   1.1884467e+04
 2.5186601e+00   1.1933723e+04
 2.5233400e+00   1.1950178e+04
 2.5280199e+00   1.2005209e+04
 2.5327001e+00   1.2033830e+04
 2.5373800e+00   1.2058894e+04
 2.5420599e+00   1.2107854e+04
 2.5467401e+00   1.2140442e+04
 2.5514200e+00   1.2149422e+04
 2.5560999e+00   1.2214460e+04
 2.5607800e+00   1.2224013e+04
 2.5654600e+00   1.2257081e+04
 2.5701399e+00   1.2299679e+04
 2.5748200e+00   1.2319259e+04
 2.5795000e+00   1.2325059e+04
 2.5841801e+00   1.2381681e+04
 2.5888600e+00   1.2424522e+04
 2.5935400e+00   1.2426547e+04
 2.5982201e+00   1.2465921e+04
 2.6029000e+00   1.2473805e+04
 2.6075799e+00   1.2506467e+04
 2.6122601e+00   1.2518658e+04
 2.6169400e+00   1.2549894e+04
 2.6216199e+00   1.2586284e+04
 2.6263001e+00   1.2590208e+04
 2.6309800e+00   1.2607973e+04
 2.6356599e+00   1.2650574e+04
 2.6403401e+00   1.2666869e+04
 2.6450200e+00   1.2675231e+04
 2.6496999e+00   1.2697494e+04
 2.6543801e+00   1.2668646e+04
 2.6590600e+00   1.2714407e+04
 2.6637399e+00   1.2728958e+04
 2.6684201e+00   1.2741306e+04
 2.6731000e+00   1.2747518e+04
 2.6777799e+00   1.2793576e+04
 2.6824601e+00   1.2757066e+04
 2.6871400e+00   1.2788784e+04
 2.6918199e+00   1.2794844e+04
 2.6965001e+00   1.2820773e+04
 2.7011800e+00   1.2829137e+04
 2.7058599e+00   1.2820067e+04
 2.7105401e+00   1.2843426e+04
 2.7152200e+00   1.2821775e+04
 2.7198999e+00   1.2853818e+04
 2.7245800e+00   1.2871483e+04
 2.7292600e+00   1.2850937e+04
 2.7339399e+00   1.2854713e+04
 2.7386200e+00   1.2841965e+04
 2.7433000e+00   1.2825045e+04
 2.7479801e+00   1.2819458e+04
 2.7526600e+00   1.2813870e+04
 2.7573400e+00   1.2809710e+04
 2.7620201e+00   1.2828314e+04
 2.7667000e+00   1.2816126e+04
 2.7713799e+00   1.2791947e+04
 2.7760601e+00   1.2801828e+04
 2.7807400e+00   1.2783199e+04
 2.7854199e+00   1.2747563e+04
 2.7901001e+00   1.2767753e+04
 2.7947800e+00   1.2750874e+04
 2.7994599e+00   1.2741787e+04
 2.8041401e+00   1.2738599e+04
 2.8088200e+00   1.2721970e+04
 2.8134999e+00   1.2714480e+04
 2.8181801e+00   1.2691587e+04
 2.8228600e+00   1.2686301e+04
 2.8275399e+00   1.2666368e+04
 2.8322201e+00   1.2661756e+04
 2.8369000e+00   1.2643330e+04
 2.8415799e+00   1.2641136e+04
 2.8462601e+00   1.2630550e+04
 2.8509400e+00   1.2615109e+04
 2.8556199e+00   1.2585315e+04
 2.8603001e+00   1.2582481e+04
 2.8649800e+00   1.2562258e+04
 2.8696599e+00   1.2540111e+04
 2.8743401e+00   1.2521833e+04
 2.8790200e+00   1.2511141e+04
 2.8836999e+00   1.2469691e+04
 2.8883801e+00   1.2483125e+04
 2.8930600e+00   1.2471383e+04
 2.8977399e+00   1.2458439e+04
 2.9024200e+00   1.2440152e+04
 2.9071000e+00   1.2415721e+04
 2.9117801e+00   1.2379791e+04
 2.9164600e+00   1.2355230e+04
 2.9211400e+00   1.2352912e+04
 2.9258201e+00   1.2310290e+04
 2.9305000e+00   1.2282824e+04
 2.9351799e+00   1.2291120e+04
 2.9398601e+00   1.2253374e+04
 2.9445400e+00   1.2263849e+04
 2.9492199e+00   1.2221118e+04
 2.9539001e+00   1.2246401e+04
 2.9585800e+00   1.2198541e+04
 2.9632599e+00   1.2154571e+04
 2.9679401e+00   1.2137957e+04
 2.9726200e+00   1.2119870e+04
 2.9772999e+00   1.2106118e+04
 2.9819801e+00   1.2091079e+04
 2.9866600e+00   1.2050858e+04
 2.9913399e+00   1.2004464e+04
 2.9960201e+00   1.1979407e+04
 3.0007000e+00   1.1967476e+04
 3.0053799e+00   1.1956672e+04
 3.0100601e+00   1.1906015e+04
 3.0147400e+00   1.1891405e+04
 3.0194199e+00   1.1881552e+04
 3.0241001e+00   1.1832871e+04
 3.0287800e+00   1.1814633e+04
 3.0334599e+00   1.1805199e+04
 3.0381401e+00   1.1769885e+04
 3.0428200e+00   1.1748344e+04
 3.0474999e+00   1.1718426e+04
 3.0521801e+00   1.1679682e+04
 3.0568600e+00   1.1648623e+04
 3.0615399e+00   1.1623109e+04
 3.0662200e+00   1.1584302e+04
 3.0709000e+00   1.1568291e+04
 3.0755799e+00   1.1517118e+04
 3.0802600e+00   1.1539231e+04
 3.0849400e+00   1.1479205e+04
 3.0896201e+00   1.1481582e+04
 3.0943000e+00   1.1440576e+04
 3.0989799e+00   1.1434534e+04
 3.1036601e+00   1.1396329e+04
 3.1083400e+00   1.1406288e+04
 3.1130199e+00   1.1348556e+04
 3.1177001e+00   1.1352444e+04
 3.1223800e+00   1.1333014e+04
 3.1270599e+00   1.1303707e+04
 3.1317401e+00   1.1296138e+04
 3.1364200e+00   1.1285872e+04
 3.1410999e+00   1.1247881e+04
 3.1457801e+00   1.1237585e+04
 3.1504600e+00   1.1199936e+04
 3.1551399e+00   1.1194546e+04
 3.1598201e+00   1.1180901e+04
 3.1645000e+00   1.1155090e+04
 3.1691799e+00   1.1132778e+04
 3.1738601e+00   1.1125065e+04
 3.1785400e+00   1.1089222e+04
 3.1832199e+00   1.1082810e+04
 3.1879001e+00   1.1098584e+04
 3.1925800e+00   1.1048375e+04
 3.1972599e+00   1.1062243e+04
 3.2019401e+00   1.1024271e+04
 3.2066200e+00   1.1051240e+04
 3.2112999e+00   1.1008019e+04
 3.2159801e+00   1.0989695e+04
 3.2206600e+00   1.0992151e+04
 3.2253399e+00   1.0983272e+04
 3.2300200e+00   1.0918126e+04
 3.2347000e+00   1.0943707e+04
 3.2393799e+00   1.0920182e+04
 3.2440600e+00   1.0896850e+04
 3.2487400e+00   1.0882552e+04
 3.2534201e+00   1.0855064e+04
 3.2581000e+00   1.0855769e+04
 3.2627800e+00   1.0866723e+04
 3.2674601e+00   1.0815442e+04
 3.2721400e+00   1.0839322e+04
 3.2768199e+00   1.0838383e+04
 3.2815001e+00   1.0815941e+04
 3.2861800e+00   1.0818361e+04
 3.2908599e+00   1.0804217e+04
 3.2955401e+00   1.0804302e+04
 3.3002200e+00   1.0797017e+04
 3.3048999e+00   1.0779857e+04
 3.3095801e+00   1.0786226e+04
 3.3142600e+00   1.0803899e+04
 3.3189399e+00   1.0744173e+04
 3.3236201e+00   1.0784707e+04
 3.3283000e+00   1.0759113e+04
 3.3329799e+00   1.0742127e+04
 3.3376601e+00   1.0743745e+04
 3.3423400e+00   1.0724688e+04
 3.3470199e+00   1.0748896e+04
 3.3517001e+00   1.0745280e+04
 3.3563800e+00   1.0729448e+04
 3.3610599e+00   1.0720689e+04
 3.3657401e+00   1.0747202e+04
 3.3704200e+00   1.0722892e+04
 3.3750999e+00   1.0730514e+04
 3.3797801e+00   1.0732750e+04
 3.3844600e+00   1.0725362e+04
 3.3891399e+00   1.0731806e+04
 3.3938200e+00   1.0711880e+04
 3.3985000e+00   1.0729418e+04
 3.4031799e+00   1.0735623e+04
 3.4078600e+00   1.0707649e+04
 3.4125400e+00   1.0738552e+04
 3.4172201e+00   1.0736693e+04
 3.4219000e+00   1.0723666e+04
 3.4265800e+00   1.0759794e+04
 3.4312601e+00   1.0717213e+04
 3.4359400e+00   1.0748356e+04
 3.4406199e+00   1.0733481e+04
 3.4453001e+00   1.0731266e+04
 3.4499800e+00   1.0752559e+04
 3.4546599e+00   1.0763673e+04
 3.4593401e+00   1.0721523e+04
 3.4640200e+00   1.0767514e+04
 3.4686999e+00   1.0744499e+04
 3.4733801e+00   1.0752205e+04
 3.4780600e+00   1.0753827e+04
 3.4827399e+00   1.0762765e+04
 3.4874201e+00   1.0757718e+04
 3.4921000e+00   1.0781435e+04
 3.4967799e+00   1.0741810e+04
 3.5014601e+00   1.0755912e+04
 3.5061400e+00   1.0764044e+04
 3.5108199e+00   1.0735180e+04
 3.5155001e+00   1.0758242e+04
 3.5201800e+00   1.0743383e+04
 3.5248599e+00   1.0745096e+04
 3.5295401e+00   1.0751129e+04
 3.5342200e+00   1.0722565e+04
 3.5388999e+00   1.0730555e+04
 3.5435801e+00   1.0774313e+04
 3.5482600e+00   1.0701007e+04
 3.5529399e+00   1.0757798e+04
 3.5576200e+00   1.0722012e+04
 3.5623000e+00   1.0726192e+04
 3.5669799e+00   1.0752733e+04
 3.5716600e+00   1.0700441e+04
 3.5763400e+00   1.0729880e+04
 3.5810201e+00   1.0768207e+04
 3.5857000e+00   1.0696723e+04
 3.5903800e+00   1.0727076e+04
 3.5950601e+00   1.0728798e+04
 3.5997400e+00   1.0685006e+04
 3.6044199e+00   1.0742813e+04
 3.6091001e+00   1.0714254e+04
 3.6137800e+00   1.0670901e+04
 3.6184599e+00   1.0762420e+04
 3.6231401e+00   1.0677161e+04
 3.6278200e+00   1.0688793e+04
 3.6324999e+00   1.0737090e+04
 3.6371801e+00   1.0655319e+04
 3.6418600e+00   1.0727367e+04
 3.6465399e+00   1.0727543e+04
 3.6512201e+00   1.0649908e+04
 3.6559000e+00   1.0741230e+04
 3.6605799e+00   1.0672769e+04
 3.6652601e+00   1.0674871e+04
 3.6699400e+00   1.0709403e+04
 3.6746199e+00   1.0583324e+04
 3.6793001e+00   1.0593342e+04
 3.6839800e+00   1.0645278e+04
 3.6886599e+00   1.0524848e+04
 3.6933401e+00   1.0587980e+04
 3.6980200e+00   1.0517940e+04
 3.7026999e+00   1.0476566e+04
 3.7073801e+00   1.0489635e+04
 3.7120600e+00   1.0395351e+04
 3.7167399e+00   1.0366223e+04
 3.7214200e+00   1.0401875e+04
 3.7261000e+00   1.0257596e+04
 3.7307799e+00   1.0275246e+04
 3.7354600e+00   1.0220108e+04
 3.7401400e+00   1.0139454e+04
 3.7448201e+00   1.0157926e+04
 3.7495000e+00   1.0137104e+04
 3.7541800e+00   1.0009482e+04
 3.7588601e+00   1.0092685e+04
 3.7635400e+00   9.8989396e+03
 3.7682199e+00   9.9519715e+03
 3.7729001e+00   9.9258703e+03
 3.7775800e+00   9.8477109e+03
 3.7822599e+00   9.8120109e+03
 3.7869401e+00   9.8879200e+03
 3.7916200e+00   9.6539599e+03
 3.7962999e+00   9.8450120e+03
 3.8009801e+00   9.6816449e+03
 3.8056600e+00   9.6562424e+03
 3.8103399e+00   9.7058159e+03
 3.8150201e+00   9.5893571e+03
 3.8197000e+00   9.6117127e+03
 3.8243799e+00   9.6526393e+03
 3.8290601e+00   9.5228114e+03
 3.8337400e+00   9.5756312e+03
 3.8384199e+00   9.5288488e+03
 3.8431001e+00   9.3900907e+03
 3.8477800e+00   9.5496816e+03
 3.8524599e+00   9.3801549e+03
 3.8571401e+00   9.4186944e+03
 3.8618200e+00   9.3664347e+03
 3.8664999e+00   9.3198789e+03
 3.8711801e+00   9.3512544e+03
 3.8758600e+00   9.3012326e+03
 3.8805399e+00   9.2202171e+03
 3.8852201e+00   9.2957194e+03
 3.8899000e+00   9.1530230e+03
 3.8945799e+00   9.1206005e+03
 3.8992600e+00   9.1279219e+03
 3.9039400e+00   9.0624973e+03
 3.9086201e+00   9.0261807e+03
 3.9133000e+00   9.0808653e+03
 3.9179800e+00   8.9277021e+03
 3.9226601e+00   8.9882007e+03
 3.9273400e+00   9.0069470e+03
 3.9320199e+00   8.8918596e+03
 3.9367001e+00   8.8969296e+03
 3.9413800e+00   8.8881172e+03
 3.9460599e+00   8.8136696e+03
 3.9507401e+00   8.8800082e+03
 3.9554200e+00   8.8160797e+03
 3.9600999e+00   8.7615629e+03
 3.9647801e+00   8.7655946e+03
 3.9694600e+00   8.7074334e+03
 3.9741399e+00   8.6904065e+03
 3.9788201e+00   8.6555853e+03
 3.9835000e+00   8.6311529e+03
 3.9881799e+00   8.5746765e+03
 3.9928601e+00   8.5628095e+03
 3.9975400e+00   8.5331358e+03
 4.0022202e+00   8.5839814e+03
 4.0068998e+00   8.4720247e+03
 4.0115800e+00   8.5278142e+03
 4.0162601e+00   8.4950809e+03
 4.0209398e+00   8.4171709e+03
 4.0256200e+00   8.4440728e+03
 4.0303001e+00   8.4425733e+03
 4.0349798e+00   8.3743139e+03
 4.0396600e+00   8.4632451e+03
 4.0443401e+00   8.3133212e+03
 4.0490198e+00   8.3220615e+03
 4.0537000e+00   8.3560415e+03
 4.0583801e+00   8.3055297e+03
 4.0630598e+00   8.3114966e+03
 4.0677400e+00   8.3120140e+03
 4.0724201e+00   8.2463355e+03
 4.0770998e+00   8.2818307e+03
 4.0817800e+00   8.2171683e+03
 4.0864601e+00   8.1787892e+03
 4.0911398e+00   8.2548182e+03
 4.0958200e+00   8.1134221e+03
 4.1005001e+00   8.1500543e+03
 4.1051798e+00   8.1575602e+03
 4.1098599e+00   8.1235304e+03
 4.1145401e+00   8.1418080e+03
 4.1192198e+00   8.1308053e+03
 4.1238999e+00   8.0209489e+03
 4.1285801e+00   8.1593304e+03
 4.1332598e+00   8.0008409e+03
 4.1379399e+00   8.0774084e+03
 4.1426201e+00   8.0467484e+03
 4.1472998e+00   7.9777369e+03
 4.1519799e+00   8.0370005e+03
 4.1566601e+00   7.9928853e+03
 4.1613402e+00   7.9187634e+03
 4.1660199e+00   8.0346402e+03
 4.1707001e+00   7.8970686e+03
 4.1753802e+00   7.9160913e+03
 4.1800599e+00   7.9265156e+03
 4.1847401e+00   7.8701789e+03
 4.1894202e+00   7.9475898e+03
 4.1940999e+00   7.8943728e+03
 4.1987801e+00   7.8390951e+03
 4.2034602e+00   7.9456289e+03
 4.2081399e+00   7.8762710e+03
 4.2128201e+00   7.8846564e+03
 4.2175002e+00   8.0000877e+03
 4.2221799e+00   7.9028355e+03
 4.2268600e+00   7.9277543e+03
 4.2315402e+00   7.9557124e+03
 4.2362199e+00   7.8605278e+03
 4.2409000e+00   7.9949133e+03
 4.2455802e+00   8.0429495e+03
 4.2502599e+00   8.0222081e+03
 4.2549400e+00   8.2225011e+03
 4.2596202e+00   8.2135656e+03
 4.2642999e+00   8.4121943e+03
 4.2689800e+00   8.6277598e+03
 4.2736602e+00   8.9145014e+03
 4.2783399e+00   9.1575638e+03
 4.2830200e+00   9.4408874e+03
 4.2877002e+00   9.6137094e+03
 4.2923799e+00   9.8104973e+03
 4.2970600e+00   9.8793631e+03
 4.3017402e+00   9.8402399e+03
 4.3064198e+00   9.8102927e+03
 4.3111000e+00   9.6740922e+03
 4.3157802e+00   9.5603881e+03
 4.3204598e+00   9.3599788e+03
 4.3251400e+00   9.1152852e+03
 4.3298202e+00   9.0295427e+03
 4.3344998e+00   8.8470046e+03
 4.3391800e+00   8.7317010e+03
 4.3438601e+00   8.6670003e+03
 4.3485398e+00   8.5483747e+03
 4.3532200e+00   8.4729901e+03
 4.3579001e+00   8.4353702e+03
 4.3625798e+00   8.3053679e+03
 4.3672600e+00   8.2370938e+03
 4.3719401e+00   8.1666209e+03
 4.3766198e+00   8.0872513e+03
 4.3813000e+00   8.0528886e+03
 4.3859801e+00   7.9832624e+03
 4.3906598e+00   7.8953474e+03
 4.3953400e+00   7.9194651e+03
 4.4000201e+00   7.8134038e+03
 4.4046998e+00   7.8405615e+03
 4.4093800e+00   7.7462879e+03
 4.4140601e+00   7.7108506e+03
 4.4187398e+00   7.6901308e+03
 4.4234200e+00   7.6452558e+03
 4.4281001e+00   7.5776325e+03
 4.4327798e+00   7.6733496e+03
 4.4374599e+00   7.5604097e+03
 4.4421401e+00   7.5940039e+03
 4.4468198e+00   7.5669082e+03
 4.4514999e+00   7.5098524e+03
 4.4561801e+00   7.5150454e+03
 4.4608598e+00   7.5148182e+03
 4.4655399e+00   7.4872747e+03
 4.4702201e+00   7.5101227e+03
 4.4748998e+00   7.4532062e+03
 4.4795799e+00   7.4416170e+03
 4.4842601e+00   7.4442234e+03
 4.4889398e+00   7.4025017e+03
 4.4936199e+00   7.3906501e+03
 4.4983001e+00   7.3662970e+03
 4.5029802e+00   7.3094389e+03
 4.5076599e+00   7.2826917e+03
 4.5123401e+00   7.2627657e+03
 4.5170202e+00   7.1725864e+03
 4.5216999e+00   7.2035558e+03
 4.5263801e+00   7.1322777e+03
 4.5310602e+00   7.1129371e+03
 4.5357399e+00   7.1020692e+03
 4.5404201e+00   7.0683721e+03
 4.5451002e+00   7.0473865e+03
 4.5497799e+00   7.0376972e+03
 4.5544600e+00   7.0013871e+03
 4.5591402e+00   7.0077122e+03
 4.5638199e+00   6.9658839e+03
 4.5685000e+00   6.9275096e+03
 4.5731802e+00   6.9560548e+03
 4.5778599e+00   6.9314833e+03
 4.5825400e+00   6.9152047e+03
 4.5872202e+00   6.9037028e+03
 4.5918999e+00   6.8607797e+03
 4.5965800e+00   6.8659880e+03
 4.6012602e+00   6.8270031e+03
 4.6059399e+00   6.8316951e+03
 4.6106200e+00   6.8253132e+03
 4.6153002e+00   6.8004433e+03
 4.6199799e+00   6.7625751e+03
 4.6246600e+00   6.7676319e+03
 4.6293402e+00   6.7505495e+03
 4.6340199e+00   6.7311199e+03
 4.6387000e+00   6.7240522e+03
 4.6433802e+00   6.6924480e+03
 4.6480598e+00   6.7000973e+03
 4.6527400e+00   6.6765741e+03
 4.6574202e+00   6.6502675e+03
 4.6620998e+00   6.6747226e+03
 4.6667800e+00   6.6609412e+03
 4.6714602e+00   6.6449024e+03
 4.6761398e+00   6.6331758e+03
 4.6808200e+00   6.6214449e+03
 4.6855001e+00   6.6126729e+03
 4.6901798e+00   6.6045258e+03
 4.6948600e+00   6.6109182e+03
 4.6995401e+00   6.6122570e+03
 4.7042198e+00   6.6120320e+03
 4.7089000e+00   6.5910985e+03
 4.7135801e+00   6.6371388e+03
 4.7182598e+00   6.6297417e+03
 4.7229400e+00   6.6885101e+03
 4.7276201e+00   6.6721902e+03
 4.7322998e+00   6.7193136e+03
 4.7369800e+00   6.7517049e+03
 4.7416601e+00   6.7708383e+03
 4.7463398e+00   6.8004120e+03
 4.7510200e+00   6.8354507e+03
 4.7557001e+00   6.8671904e+03
 4.7603798e+00   6.9006493e+03
 4.7650599e+00   6.9648209e+03
 4.7697401e+00   7.0183535e+03
 4.7744198e+00   7.1186233e+03
 4.7790999e+00   7.2054445e+03
 4.7837801e+00   7.3060813e+03
 4.7884598e+00   7.4582796e+03
 4.7931399e+00   7.6219572e+03
 4.7978201e+00   7.8032332e+03
 4.8024998e+00   8.0265525e+03
 4.8071799e+00   8.2331813e+03
 4.8118601e+00   8.4647904e+03
 4.8165398e+00   8.7043786e+03
 4.8212199e+00   8.9458471e+03
 4.8259001e+00   9.1769148e+03
 4.8305802e+00   9.3681047e+03
 4.8352599e+00   9.5104741e+03
 4.8399401e+00   9.5808003e+03
 4.8446202e+00   9.5514560e+03
 4.8492999e+00   9.4138539e+03
 4.8539801e+00   9.1996998e+03
 4.8586602e+00   8.9113963e+03
 4.8633399e+00   8.5864425e+03
 4.8680201e+00   8.2563734e+03
 4.8727002e+00   7.9620867e+03
 4.8773799e+00   7.7244399e+03
 4.8820601e+00   7.5499969e+03
 4.8867402e+00   7.4133641e+03
 4.8914199e+00   7.3448939e+03
 4.8961000e+00   7.3168810e+03
 4.9007802e+00   7.2782974e+03
 4.9054599e+00   7.3177942e+03
 4.9101400e+00   7.3706803e+03
 4.9148202e+00   7.4198690e+03
 4.9194999e+00   7.4800101e+03
 4.9241800e+00   7.5637680e+03
 4.9288602e+00   7.6461095e+03
 4.9335399e+00   7.7534128e+03
 4.9382200e+00   7.8643596e+03
 4.9429002e+00   7.9756329e+03
 4.9475799e+00   8.1623404e+03
 4.9522600e+00   8.3370785e+03
 4.9569402e+00   8.5662343e+03
 4.9616199e+00   8.8031234e+03
 4.9663000e+00   9.0845098e+03
 4.9709802e+00   9.3524783e+03
 4.9756598e+00   9.6446423e+03
 4.9803400e+00   9.9113257e+03
 4.9850202e+00   1.0151377e+04
 4.9896998e+00   1.0291107e+04
 4.9943800e+00   1.0401833e+04
 4.9990602e+00   1.0403602e+04
 5.0037398e+00   1.0284985e+04
 5.0084200e+00   1.0105291e+04
 5.0131001e+00   9.8514273e+03
 5.0177798e+00   9.5186536e+03
 5.0224600e+00   9.1434208e+03
 5.0271401e+00   8.7778263e+03
 5.0318198e+00   8.4158492e+03
 5.0365000e+00   8.1183460e+03
 5.0411801e+00   7.8049477e+03
 5.0458598e+00   7.5672952e+03
 5.0505400e+00   7.3375764e+03
 5.0552201e+00   7.1862546e+03
 5.0598998e+00   7.0190293e+03
 5.0645800e+00   6.9498421e+03
 5.0692601e+00   6.9068479e+03
 5.0739398e+00   6.8865915e+03
 5.0786200e+00   6.9339976e+03
 5.0833001e+00   7.0387084e+03
 5.0879798e+00   7.0797112e+03
 5.0926600e+00   7.2081051e+03
 5.0973401e+00   7.2728146e+03
 5.1020198e+00   7.6841744e+03
 5.1066999e+00   8.0492198e+03
 5.1113801e+00   8.0331161e+03
 5.1160598e+00   7.8741380e+03
 5.1207399e+00   8.1102098e+03
 5.1254201e+00   8.7213783e+03
 5.1300998e+00   1.0136372e+04
 5.1347799e+00   1.1257617e+04
 5.1394601e+00   1.2790397e+04
 5.1441398e+00   1.3132336e+04
 5.1488199e+00   1.3235802e+04
 5.1535001e+00   1.2044644e+04
 5.1581802e+00   1.1079238e+04
 5.1628599e+00   9.7753033e+03
 5.1675401e+00   8.6974372e+03
 5.1722202e+00   7.7581484e+03
 5.1768999e+00   7.1533381e+03
 5.1815801e+00   6.7283586e+03
 5.1862602e+00   6.6468368e+03
 5.1909399e+00   6.7463829e+03
 5.1956201e+00   6.6614650e+03
 5.2003002e+00   6.5592134e+03
 5.2049799e+00   6.3954552e+03
 5.2096601e+00   6.3445751e+03
 5.2143402e+00   6.2973690e+03
 5.2190199e+00   6.2548584e+03
 5.2237000e+00   6.2091019e+03
 5.2283802e+00   6.1286572e+03
 5.2330599e+00   6.1184344e+03
 5.2377400e+00   6.0744729e+03
 5.2424202e+00   6.0167497e+03
 5.2470999e+00   6.0228038e+03
 5.2517800e+00   5.9775388e+03
 5.2564602e+00   5.9688274e+03
 5.2611399e+00   5.9591781e+03
 5.2658200e+00   5.9248004e+03
 5.2705002e+00   5.9189681e+03
 5.2751799e+00   5.8989792e+03
 5.2798600e+00   5.9015924e+03
 5.2845402e+00   5.8914390e+03
 5.2892199e+00   5.8882993e+03
 5.2939000e+00   5.8862949e+03
 5.2985802e+00   5.8828902e+03
 5.3032598e+00   5.8680551e+03
 5.3079400e+00   5.8608876e+03
 5.3126202e+00   5.8460319e+03
 5.3172998e+00   5.8498833e+03
 5.3219800e+00   5.8532611e+03
 5.3266602e+00   5.8335803e+03
 5.3313398e+00   5.8297578e+03
 5.3360200e+00   5.8299070e+03
 5.3407001e+00   5.8150512e+03
 5.3453798e+00   5.8241201e+03
 5.3500600e+00   5.8080740e+03
 5.3547401e+00   5.8193528e+03
 5.3594198e+00   5.8135418e+03
 5.3641000e+00   5.7919553e+03
 5.3687801e+00   5.8086048e+03
 5.3734598e+00   5.7929683e+03
 5.3781400e+00   5.8060697e+03
 5.3828201e+00   5.7919119e+03
 5.3874998e+00   5.7888878e+03
 5.3921800e+00   5.7854680e+03
 5.3968601e+00   5.8100697e+03
 5.4015398e+00   5.8029995e+03
 5.4062200e+00   5.8204267e+03
 5.4109001e+00   5.8040256e+03
 5.4155798e+00   5.8202524e+03
 5.4202600e+00   5.8275878e+03
 5.4249401e+00   5.8297236e+03
 5.4296198e+00   5.8247422e+03
 5.4342999e+00   5.8458817e+03
 5.4389801e+00   5.8458635e+03
 5.4436598e+00   5.8707870e+03
 5.4483399e+00   5.8796381e+03
 5.4530201e+00   5.8906773e+03
 5.4576998e+00   5.9145049e+03
 5.4623799e+00   5.9309246e+03
 5.4670601e+00   5.9483383e+03
 5.4717398e+00   5.9839543e+03
 5.4764199e+00   5.9979192e+03
 5.4811001e+00   6.0596490e+03
 5.4857798e+00   6.1001682e+03
 5.4904599e+00   6.1354411e+03
 5.4951401e+00   6.2060754e+03
 5.4998202e+00   6.2600603e+03
 5.5044999e+00   6.3744968e+03
 5.5091801e+00   6.4856439e+03
 5.5138602e+00   6.6169435e+03
 5.5185399e+00   6.7853347e+03
 5.5232201e+00   6.9869445e+03
 5.5279002e+00   7.2221206e+03
 5.5325799e+00   7.5421233e+03
 5.5372601e+00   7.8200574e+03
 5.5419402e+00   8.1789006e+03
 5.5466199e+00   8.5070185e+03
 5.5513000e+00   8.8192308e+03
 5.5559802e+00   9.0961562e+03
 5.5606599e+00   9.3232381e+03
 5.5653400e+00   9.4300272e+03
 5.5700202e+00   9.5074081e+03
 5.5746999e+00   9.4740884e+03
 5.5793800e+00   9.3875068e+03
 5.5840602e+00   9.2704919e+03
 5.5887399e+00   9.0826656e+03
 5.5934200e+00   8.8526876e+03
 5.5981002e+00   8.6632935e+03
 5.6027799e+00   8.4187249e+03
 5.6074600e+00   8.1750257e+03
 5.6121402e+00   7.9619397e+03
 5.6168199e+00   7.7457439e+03
 5.6215000e+00   7.5798082e+03
 5.6261802e+00   7.3979472e+03
 5.6308599e+00   7.2221513e+03
 5.6355400e+00   7.0947698e+03
 5.6402202e+00   6.9526980e+03
 5.6448998e+00   6.8294209e+03
 5.6495800e+00   6.7462127e+03
 5.6542602e+00   6.6298246e+03
 5.6589398e+00   6.5546306e+03
 5.6636200e+00   6.4659885e+03
 5.6683002e+00   6.4036201e+03
 5.6729798e+00   6.3633766e+03
 5.6776600e+00   6.3036975e+03
 5.6823401e+00   6.2411970e+03
 5.6870198e+00   6.2159156e+03
 5.6917000e+00   6.1513573e+03
 5.6963801e+00   6.1348840e+03
 5.7010598e+00   6.1062951e+03
 5.7057400e+00   6.0829433e+03
 5.7104201e+00   6.0717259e+03
 5.7150998e+00   6.0480202e+03
 5.7197800e+00   6.0400319e+03
 5.7244601e+00   6.0468578e+03
 5.7291398e+00   6.0478382e+03
 5.7338200e+00   6.0401486e+03
 5.7385001e+00   6.0601216e+03
 5.7431798e+00   6.0444044e+03
 5.7478600e+00   6.0780455e+03
 5.7525401e+00   6.0879110e+03
 5.7572198e+00   6.0981677e+03
 5.7618999e+00   6.0993198e+03
 5.7665801e+00   6.1077182e+03
 5.7712598e+00   6.1064273e+03
 5.7759399e+00   6.1080933e+03
 5.7806201e+00   6.0954687e+03
 5.7852998e+00   6.0814238e+03
 5.7899799e+00   6.0675812e+03
 5.7946601e+00   6.0651947e+03
 5.7993398e+00   6.0841634e+03
 5.8040199e+00   6.0705749e+03
 5.8087001e+00   6.0865241e+03
 5.8133798e+00   6.0909707e+03
 5.8180599e+00   6.0769236e+03
 5.8227401e+00   6.1074725e+03
 5.8274202e+00   6.1300381e+03
 5.8320999e+00   6.1167786e+03
 5.8367801e+00   6.1664331e+03
 5.8414602e+00   6.1685885e+03
 5.8461399e+00   6.2151320e+03
 5.8508201e+00   6.2565663e+03
 5.8555002e+00   6.2836895e+03
 5.8601799e+00   6.3434511e+03
 5.8648601e+00   6.3865356e+03
 5.8695402e+00   6.4503245e+03
 5.8742199e+00   6.5441570e+03
 5.8789001e+00   6.6023917e+03
 5.8835802e+00   6.7341519e+03
 5.8882599e+00   6.8406839e+03
 5.8929400e+00   6.9443275e+03
 5.8976202e+00   7.1193359e+03
 5.9022999e+00   7.2536959e+03
 5.9069800e+00   7.5088052e+03
 5.9116602e+00   7.8504622e+03
 5.9163399e+00   8.1927211e+03
 5.9210200e+00   8.5984941e+03
 5.9257002e+00   8.7614548e+03
 5.9303799e+00   9.2154073e+03
 5.9350600e+00   9.8554627e+03
 5.9397402e+00   1.0418513e+04
 5.9444199e+00   1.0634300e+04
 5.9491000e+00   1.0723302e+04
 5.9537802e+00   1.0701933e+04
 5.9584599e+00   1.0403591e+04
 5.9631400e+00   1.0402942e+04
 5.9678202e+00   1.0428083e+04
 5.9724998e+00   1.0364200e+04
 5.9771800e+00   1.0256878e+04
 5.9818602e+00   1.0078037e+04
 5.9865398e+00   9.9737953e+03
 5.9912200e+00   9.7947998e+03
 5.9959002e+00   9.5680385e+03
 6.0005798e+00   9.3480396e+03
 6.0052600e+00   9.0701001e+03
 6.0099401e+00   8.8149543e+03
 6.0146198e+00   8.5458834e+03
 6.0193000e+00   8.2480423e+03
 6.0239801e+00   8.0143189e+03
 6.0286598e+00   7.7562819e+03
 6.0333400e+00   7.5139692e+03
 6.0380201e+00   7.3301390e+03
 6.0426998e+00   7.1429051e+03
 6.0473800e+00   6.9718020e+03
 6.0520601e+00   6.8401912e+03
 6.0567398e+00   6.6808652e+03
 6.0614200e+00   6.5896831e+03
 6.0661001e+00   6.4866946e+03
 6.0707798e+00   6.3990997e+03
 6.0754600e+00   6.3656246e+03
 6.0801401e+00   6.2943806e+03
 6.0848198e+00   6.2180638e+03
 6.0895000e+00   6.2145324e+03
 6.0941801e+00   6.1230093e+03
 6.0988598e+00   6.1199164e+03
 6.1035399e+00   6.0744465e+03
 6.1082201e+00   6.0372222e+03
 6.1128998e+00   6.0493250e+03
 6.1175799e+00   6.0050789e+03
 6.1222601e+00   5.9866398e+03
 6.1269398e+00   5.9860335e+03
 6.1316199e+00   5.9604176e+03
 6.1363001e+00   5.9556024e+03
 6.1409798e+00   5.9632211e+03
 6.1456599e+00   5.9204263e+03
 6.1503401e+00   5.9261432e+03
 6.1550202e+00   5.9077325e+03
 6.1596999e+00   5.9142695e+03
 6.1643801e+00   5.9107504e+03
 6.1690602e+00   5.9029370e+03
 6.1737399e+00   5.8916954e+03
 6.1784201e+00   5.9099007e+03
 6.1831002e+00   5.8870226e+03
 6.1877799e+00   5.9033902e+03
 6.1924601e+00   5.8934764e+03
 6.1971402e+00   5.8942023e+03
 6.2018199e+00   5.9056954e+03
 6.2065001e+00   5.8895865e+03
 6.2111802e+00   5.8844176e+03
 6.2158599e+00   5.8898775e+03
 6.2205400e+00   5.8820064e+03
 6.2252202e+00   5.8844225e+03
 6.2298999e+00   5.9041261e+03
 6.2345800e+00   5.8735086e+03
 6.2392602e+00   5.8890027e+03
 6.2439399e+00   5.8778640e+03
 6.2486200e+00   5.8842094e+03
 6.2533002e+00   5.8875976e+03
 6.2579799e+00   5.9045748e+03
 6.2626600e+00   5.8943340e+03
 6.2673402e+00   5.9021118e+03
 6.2720199e+00   5.8765171e+03
 6.2767000e+00   5.9190451e+03
 6.2813802e+00   5.8973529e+03
 6.2860599e+00   5.8937636e+03
 6.2907400e+00   5.8940647e+03
 6.2954202e+00   5.9138588e+03
 6.3000998e+00   5.8964595e+03
 6.3047800e+00   5.9309322e+03
 6.3094602e+00   5.9151886e+03
 6.3141398e+00   5.9298108e+03
 6.3188200e+00   5.9403654e+03
 6.3235002e+00   5.9175654e+03
 6.3281798e+00   5.9558419e+03
 6.3328600e+00   5.9329110e+03
 6.3375401e+00   5.9614945e+03
 6.3422198e+00   5.9468675e+03
 6.3469000e+00   5.9420584e+03
 6.3515801e+00   5.9499466e+03
 6.3562598e+00   5.9895455e+03
 6.3609400e+00   5.9309260e+03
 6.3656201e+00   5.9868668e+03
 6.3702998e+00   5.9528992e+03
 6.3749800e+00   5.9543454e+03
 6.3796601e+00   5.9487546e+03
 6.3843398e+00   5.9846911e+03
 6.3890200e+00   5.9775838e+03
 6.3937001e+00   5.9832344e+03
 6.3983798e+00   5.9724175e+03
 6.4030600e+00   5.9890397e+03
 6.4077401e+00   6.0058305e+03
 6.4124198e+00   5.9907291e+03
 6.4171000e+00   6.0292654e+03
 6.4217801e+00   6.0265656e+03
 6.4264598e+00   6.0330473e+03
 6.4311399e+00   6.0410204e+03
 6.4358201e+00   6.0569557e+03
 6.4404998e+00   6.0664849e+03
 6.4451799e+00   6.0911015e+03
 6.4498601e+00   6.0460913e+03
 6.4545398e+00   6.0764600e+03
 6.4592199e+00   6.0363835e+03
 6.4639001e+00   6.0815665e+03
 6.4685798e+00   6.0715628e+03
 6.4732599e+00   6.0586053e+03
 6.4779401e+00   6.0522920e+03
 6.4826198e+00   6.0452648e+03
 6.4872999e+00   6.0366768e+03
 6.4919801e+00   6.0406517e+03
 6.4966602e+00   6.0683411e+03
 6.5013399e+00   6.0090997e+03
 6.5060201e+00   6.0708438e+03
 6.5107002e+00   6.0586229e+03
 6.5153799e+00   6.0836193e+03
 6.5200601e+00   6.0886122e+03
 6.5247402e+00   6.1027905e+03
 6.5294199e+00   6.0706299e+03
 6.5341001e+00   6.1045611e+03
 6.5387802e+00   6.0948043e+03
 6.5434599e+00   6.1076323e+03
 6.5481400e+00   6.1274069e+03
 6.5528202e+00   6.1232915e+03
 6.5574999e+00   6.1401845e+03
 6.5621800e+00   6.1136483e+03
 6.5668602e+00   6.1574361e+03
 6.5715399e+00   6.1683995e+03
 6.5762200e+00   6.1578498e+03
 6.5809002e+00   6.1714276e+03
 6.5855799e+00   6.1931082e+03
 6.5902600e+00   6.1778331e+03
 6.5949402e+00   6.2204792e+03
 6.5996199e+00   6.1583783e+03
 6.6043000e+00   6.2340815e+03
 6.6089802e+00   6.2165961e+03
 6.6136599e+00   6.2342435e+03
 6.6183400e+00   6.2377236e+03
 6.6230202e+00   6.2338111e+03
 6.6276999e+00   6.2450224e+03
 6.6323800e+00   6.2827903e+03
 6.6370602e+00   6.2910063e+03
 6.6417398e+00   6.2810194e+03
 6.6464200e+00   6.3634032e+03
 6.6511002e+00   6.3196670e+03
 6.6557798e+00   6.3496004e+03
 6.6604600e+00   6.3694889e+03
 6.6651402e+00   6.3927411e+03
 6.6698198e+00   6.3511567e+03
 6.6745000e+00   6.4011004e+03
 6.6791801e+00   6.3733373e+03
 6.6838598e+00   6.4407726e+03
 6.6885400e+00   6.3717236e+03
 6.6932201e+00   6.4499321e+03
 6.6978998e+00   6.3922467e+03
 6.7025800e+00   6.4510062e+03
 6.7072601e+00   6.4582366e+03
 6.7119398e+00   6.4518226e+03
 6.7166200e+00   6.4681010e+03
 6.7213001e+00   6.4762640e+03
 6.7259798e+00   6.4993012e+03
 6.7306600e+00   6.5009882e+03
 6.7353401e+00   6.5704737e+03
 6.7400198e+00   6.5340986e+03
 6.7447000e+00   6.5961343e+03
 6.7493801e+00   6.5528830e+03
 6.7540598e+00   6.6297916e+03
 6.7587399e+00   6.6219710e+03
 6.7634201e+00   6.6446626e+03
 6.7680998e+00   6.6439094e+03
 6.7727799e+00   6.7048541e+03
 6.7774601e+00   6.6354507e+03
 6.7821398e+00   6.6924068e+03
 6.7868199e+00   6.6974456e+03
 6.7915001e+00   6.7117448e+03
 6.7961798e+00   6.7179972e+03
 6.8008599e+00   6.7075201e+03
 6.8055401e+00   6.7119394e+03
 6.8102198e+00   6.7357633e+03
 6.8148999e+00   6.7705364e+03
 6.8195801e+00   6.8005592e+03
 6.8242602e+00   6.8042109e+03
 6.8289399e+00   6.8027172e+03
 6.8336201e+00   6.8746668e+03
 6.8383002e+00   6.8428246e+03
 6.8429799e+00   6.8741067e+03
 6.8476601e+00   6.9356512e+03
 6.8523402e+00   6.9094778e+03
 6.8570199e+00   6.9604842e+03
 6.8617001e+00   7.0105709e+03
 6.8663802e+00   7.0364464e+03
 6.8710599e+00   7.1060534e+03
 6.8757401e+00   7.1695394e+03
 6.8804202e+00   7.2128475e+03
 6.8850999e+00   7.3065473e+03
 6.8897800e+00   7.4044137e+03
 6.8944602e+00   7.4697973e+03
 6.8991399e+00   7.6177514e+03
 6.9038200e+00   7.6667017e+03
 6.9085002e+00   7.8176046e+03
 6.9131799e+00   7.8738192e+03
 6.9178600e+00   8.0757224e+03
 6.9225402e+00   8.1044453e+03
 6.9272199e+00   8.2352446e+03
 6.9319000e+00   8.2363222e+03
 6.9365802e+00   8.3518197e+03
 6.9412599e+00   8.3026199e+03
 6.9459400e+00   8.3946272e+03
 6.9506202e+00   8.3655836e+03
 6.9552999e+00   8.3886945e+03
 6.9599800e+00   8.3549863e+03
 6.9646602e+00   8.3053199e+03
 6.9693398e+00   8.1886739e+03
 6.9740200e+00   8.2222142e+03
 6.9787002e+00   8.1329671e+03
 6.9833798e+00   8.0820841e+03
 6.9880600e+00   8.0446792e+03
 6.9927402e+00   7.9724629e+03
 6.9974198e+00   7.9232367e+03
 7.0021000e+00   7.8289643e+03
 7.0067801e+00   7.8281299e+03
 7.0114598e+00   7.7951241e+03
 7.0161400e+00   7.7337215e+03
 7.0208201e+00   7.6631601e+03
 7.0254998e+00   7.6621524e+03
 7.0301800e+00   7.5838399e+03
 7.0348601e+00   7.5853650e+03
 7.0395398e+00   7.5480070e+03
 7.0442200e+00   7.5338437e+03
 7.0489001e+00   7.4747114e+03
 7.0535798e+00   7.4820131e+03
 7.0582600e+00   7.4311355e+03
 7.0629401e+00   7.4813810e+03
 7.0676198e+00   7.3948887e+03
 7.0723000e+00   7.4005116e+03
 7.0769801e+00   7.2968003e+03
 7.0816598e+00   7.2299456e+03
 7.0863400e+00   7.1810092e+03
 7.0910201e+00   7.0702984e+03
 7.0956998e+00   7.0346499e+03
 7.1003799e+00   6.9896948e+03
 7.1050601e+00   6.9537962e+03
 7.1097398e+00   6.8885149e+03
 7.1144199e+00   6.8910605e+03
 7.1191001e+00   6.8425818e+03
 7.1237798e+00   6.8597606e+03
 7.1284599e+00   6.7962814e+03
 7.1331401e+00   6.7939483e+03
 7.1378198e+00   6.7847765e+03
 7.1424999e+00   6.7773696e+03
 7.1471801e+00   6.7548055e+03
 7.1518602e+00   6.7728897e+03
 7.1565399e+00   6.7276583e+03
 7.1612201e+00   6.7358397e+03
 7.1659002e+00   6.7091163e+03
 7.1705799e+00   6.6994021e+03
 7.1752601e+00   6.7163079e+03
 7.1799402e+00   6.7009572e+03
 7.1846199e+00   6.6944621e+03
 7.1893001e+00   6.6676849e+03
 7.1939802e+00   6.6827226e+03
 7.1986599e+00   6.6604891e+03
 7.2033401e+00   6.6622733e+03
 7.2080202e+00   6.6395645e+03
 7.2126999e+00   6.6778736e+03
 7.2173800e+00   6.6244853e+03
 7.2220602e+00   6.6445684e+03
 7.2267399e+00   6.6490232e+03
 7.2314200e+00   6.6466598e+03
 7.2361002e+00   6.6491933e+03
 7.2407799e+00   6.6648063e+03
 7.2454600e+00   6.6485040e+03
 7.2501402e+00   6.6634072e+03
 7.2548199e+00   6.6695427e+03
 7.2595000e+00   6.6787326e+03
 7.2641802e+00   6.7036520e+03
 7.2688599e+00   6.6739605e+03
 7.2735400e+00   6.6853072e+03
 7.2782202e+00   6.6924639e+03
 7.2828999e+00   6.6938455e+03
 7.2875800e+00   6.6977885e+03
 7.2922602e+00   6.6783903e+03
 7.2969398e+00   6.6703765e+03
 7.3016200e+00   6.6796356e+03
 7.3063002e+00   6.6773588e+03
 7.3109798e+00   6.7018523e+03
 7.3156600e+00   6.6946631e+03
 7.3203402e+00   6.7149982e+03
 7.3250198e+00   6.7301610e+03
 7.3297000e+00   6.7442057e+03
 7.3343801e+00   6.7522741e+03
 7.3390598e+00   6.7951223e+03
 7.3437400e+00   6.8034911e+03
 7.3484201e+00   6.8041092e+03
 7.3530998e+00   6.8305631e+03
 7.3577800e+00   6.8321825e+03
 7.3624601e+00   6.8533182e+03
 7.3671398e+00   6.8683714e+03
 7.3718200e+00   6.8891130e+03
 7.3765001e+00   6.8961226e+03
 7.3811798e+00   6.9096961e+03
 7.3858600e+00   6.9287112e+03
 7.3905401e+00   6.9344099e+03
 7.3952198e+00   6.9547847e+03
 7.3999000e+00   6.9913267e+03
 7.4045801e+00   7.0195602e+03
 7.4092598e+00   7.0379476e+03
 7.4139400e+00   7.0976816e+03
 7.4186201e+00   7.1048470e+03
 7.4232998e+00   7.1475878e+03
 7.4279799e+00   7.1911757e+03
 7.4326601e+00   7.2235852e+03
 7.4373398e+00   7.2721211e+03
 7.4420199e+00   7.3153249e+03
 7.4467001e+00   7.3320084e+03
 7.4513798e+00   7.3823809e+03
 7.4560599e+00   7.4157853e+03
 7.4607401e+00   7.4129068e+03
 7.4654198e+00   7.4429645e+03
 7.4700999e+00   7.4224470e+03
 7.4747801e+00   7.4554542e+03
 7.4794598e+00   7.4209709e+03
 7.4841399e+00   7.4188837e+03
 7.4888201e+00   7.3958451e+03
 7.4935002e+00   7.3622624e+03
 7.4981799e+00   7.3219243e+03
 7.5028601e+00   7.3165661e+03
 7.5075402e+00   7.2695613e+03
 7.5122199e+00   7.2502187e+03
 7.5169001e+00   7.2001327e+03
 7.5215802e+00   7.1809863e+03
 7.5262599e+00   7.1597010e+03
 7.5309401e+00   7.1109508e+03
 7.5356202e+00   7.1036270e+03
 7.5402999e+00   7.0803405e+03
 7.5449800e+00   7.0537226e+03
 7.5496602e+00   7.0378158e+03
 7.5543399e+00   7.0121645e+03
 7.5590200e+00   6.9813814e+03
 7.5637002e+00   7.0030001e+03
 7.5683799e+00   6.9532738e+03
 7.5730600e+00   6.9412049e+03
 7.5777402e+00   6.9148423e+03
 7.5824199e+00   6.8975939e+03
 7.5871000e+00   6.8651200e+03
 7.5917802e+00   6.8657125e+03
 7.5964599e+00   6.8370593e+03
 7.6011400e+00   6.8102065e+03
 7.6058202e+00   6.7523197e+03
 7.6104999e+00   6.7200192e+03
 7.6151800e+00   6.6924609e+03
 7.6198602e+00   6.5978995e+03
 7.6245399e+00   6.5744937e+03
 7.6292200e+00   6.4837069e+03
 7.6339002e+00   6.4901400e+03
 7.6385798e+00   6.3980046e+03
 7.6432600e+00   6.3849623e+03
 7.6479402e+00   6.3317548e+03
 7.6526198e+00   6.3161342e+03
 7.6573000e+00   6.2728749e+03
 7.6619802e+00   6.2600249e+03
 7.6666598e+00   6.2248992e+03
 7.6713400e+00   6.2169178e+03
 7.6760201e+00   6.1814727e+03
 7.6806998e+00   6.1805165e+03
 7.6853800e+00   6.1530823e+03
 7.6900601e+00   6.1412773e+03
 7.6947398e+00   6.1229682e+03
 7.6994200e+00   6.1068327e+03
 7.7041001e+00   6.0874957e+03
 7.7087798e+00   6.0762934e+03
 7.7134600e+00   6.0704804e+03
 7.7181401e+00   6.0325183e+03
 7.7228198e+00   6.0431743e+03
 7.7275000e+00   6.0143297e+03
 7.7321801e+00   6.0185962e+03
 7.7368598e+00   5.9986023e+03
 7.7415400e+00   5.9939303e+03
 7.7462201e+00   5.9855675e+03
 7.7508998e+00   5.9838439e+03
 7.7555799e+00   5.9324472e+03
 7.7602601e+00   5.9539749e+03
 7.7649398e+00   5.9220121e+03
 7.7696199e+00   5.9227939e+03
 7.7743001e+00   5.9139699e+03
 7.7789798e+00   5.8775032e+03
 7.7836599e+00   5.8826257e+03
 7.7883401e+00   5.8573124e+03
 7.7930198e+00   5.8638288e+03
 7.7976999e+00   5.8501702e+03
 7.8023801e+00   5.8296523e+03
 7.8070598e+00   5.8079699e+03
 7.8117399e+00   5.8249208e+03
 7.8164201e+00   5.7882590e+03
 7.8211002e+00   5.8086587e+03
 7.8257799e+00   5.7910712e+03
 7.8304601e+00   5.7743076e+03
 7.8351402e+00   5.7913883e+03
 7.8398199e+00   5.7591385e+03
 7.8445001e+00   5.7541997e+03
 7.8491802e+00   5.7702469e+03
 7.8538599e+00   5.7434972e+03
 7.8585401e+00   5.7340370e+03
 7.8632202e+00   5.7461829e+03
 7.8678999e+00   5.7073134e+03
 7.8725801e+00   5.7266015e+03
 7.8772602e+00   5.7144649e+03
 7.8819399e+00   5.6979987e+03
 7.8866200e+00   5.7057286e+03
 7.8913002e+00   5.7022512e+03
 7.8959799e+00   5.6834889e+03
 7.9006600e+00   5.6810663e+03
 7.9053402e+00   5.6649478e+03
 7.9100199e+00   5.6865344e+03
 7.9147000e+00   5.6461428e+03
 7.9193802e+00   5.6474747e+03
 7.9240599e+00   5.6401011e+03
 7.9287400e+00   5.6303486e+03
 7.9334202e+00   5.6354813e+03
 7.9380999e+00   5.6334938e+03
 7.9427800e+00   5.6005162e+03
 7.9474602e+00   5.6270460e+03
 7.9521399e+00   5.6060168e+03
 7.9568200e+00   5.5915874e+03
 7.9615002e+00   5.6088558e+03
 7.9661798e+00   5.5939197e+03
 7.9708600e+00   5.5806322e+03
 7.9755402e+00   5.5813020e+03
 7.9802198e+00   5.5539685e+03
 7.9849000e+00   5.5706603e+03
 7.9895802e+00   5.5796329e+03
 7.9942598e+00   5.5473420e+03
 7.9989400e+00   5.5674942e+03
 8.0036201e+00   5.5345066e+03
 8.0082998e+00   5.5457878e+03
 8.0129805e+00   5.5311490e+03
 8.0176601e+00   5.5271093e+03
 8.0223398e+00   5.5359313e+03
 8.0270205e+00   5.5241817e+03
 8.0317001e+00   5.5011911e+03
 8.0363798e+00   5.5251729e+03
 8.0410604e+00   5.5100857e+03
 8.0457401e+00   5.5026340e+03
 8.0504198e+00   5.5076062e+03
 8.0551004e+00   5.4989056e+03
 8.0597801e+00   5.5351216e+03
 8.0644598e+00   5.5193205e+03
 8.0691404e+00   5.5336234e+03
 8.0738201e+00   5.5644271e+03
 8.0784998e+00   5.5529968e+03
 8.0831804e+00   5.5614549e+03
 8.0878601e+00   5.6034226e+03
 8.0925398e+00   5.5705885e+03
 8.0972204e+00   5.6363530e+03
 8.1019001e+00   5.6376584e+03
 8.1065798e+00   5.6525135e+03
 8.1112604e+00   5.6585896e+03
 8.1159401e+00   5.6752412e+03
 8.1206198e+00   5.6686571e+03
 8.1253004e+00   5.6805464e+03
 8.1299801e+00   5.6947511e+03
 8.1346598e+00   5.6957904e+03
 8.1393404e+00   5.6864553e+03
 8.1440201e+00   5.6673977e+03
 8.1486998e+00   5.7274926e+03
 8.1533804e+00   5.6638312e+03
 8.1580601e+00   5.7146509e+03
 8.1627398e+00   5.7019382e+03
 8.1674204e+00   5.7259348e+03
 8.1721001e+00   5.7363061e+03
 8.1767797e+00   5.7649847e+03
 8.1814604e+00   5.7561391e+03
 8.1861401e+00   5.8376251e+03
 8.1908197e+00   5.8390937e+03
 8.1955004e+00   5.8786607e+03
 8.2001801e+00   5.9504163e+03
 8.2048597e+00   5.9935719e+03
 8.2095404e+00   6.0694066e+03
 8.2142200e+00   6.1342073e+03
 8.2188997e+00   6.1987984e+03
 8.2235804e+00   6.3122215e+03
 8.2282600e+00   6.4032145e+03
 8.2329397e+00   6.4812713e+03
 8.2376204e+00   6.6042435e+03
 8.2423000e+00   6.6649316e+03
 8.2469797e+00   6.7862722e+03
 8.2516603e+00   6.8843941e+03
 8.2563400e+00   6.9912600e+03
 8.2610197e+00   7.0791063e+03
 8.2657003e+00   7.1893259e+03
 8.2703800e+00   7.2904463e+03
 8.2750597e+00   7.4094544e+03
 8.2797403e+00   7.4948461e+03
 8.2844200e+00   7.5652903e+03
 8.2890997e+00   7.6219786e+03
 8.2937803e+00   7.6270291e+03
 8.2984600e+00   7.6583436e+03
 8.3031397e+00   7.5966149e+03
 8.3078203e+00   7.5589414e+03
 8.3125000e+00   7.4427587e+03
 8.3171797e+00   7.3358913e+03
 8.3218603e+00   7.1363209e+03
 8.3265400e+00   6.9999325e+03
 8.3312197e+00   6.8147761e+03
 8.3359003e+00   6.6821738e+03
 8.3405800e+00   6.4791220e+03
 8.3452597e+00   6.3606292e+03
 8.3499403e+00   6.2056188e+03
 8.3546200e+00   6.1277976e+03
 8.3592997e+00   6.0362948e+03
 8.3639803e+00   6.0006272e+03
 8.3686600e+00   5.9930751e+03
 8.3733397e+00   6.0619413e+03
 8.3780203e+00   6.1954046e+03
 8.3827000e+00   6.3204919e+03
 8.3873796e+00   6.2743018e+03
 8.3920603e+00   6.4017772e+03
 8.3967400e+00   6.5698151e+03
 8.4014196e+00   6.9031519e+03
 8.4061003e+00   7.0031812e+03
 8.4107800e+00   7.0578651e+03
 8.4154596e+00   6.8791409e+03
 8.4201403e+00   6.8096233e+03
 8.4248199e+00   6.2943027e+03
 8.4294996e+00   6.2342590e+03
 8.4341803e+00   6.1659754e+03
 8.4388599e+00   6.1035507e+03
 8.4435396e+00   5.9753654e+03
 8.4482203e+00   5.8327119e+03
 8.4528999e+00   5.7771564e+03
 8.4575796e+00   5.7442861e+03
 8.4622602e+00   5.7324988e+03
 8.4669399e+00   5.7564233e+03
 8.4716196e+00   5.7659372e+03
 8.4763002e+00   5.7983580e+03
 8.4809799e+00   5.8153178e+03
 8.4856596e+00   5.8572972e+03
 8.4903402e+00   5.8884729e+03
 8.4950199e+00   5.9576373e+03
 8.4996996e+00   5.9987887e+03
 8.5043802e+00   6.0756705e+03
 8.5090599e+00   6.1074313e+03
 8.5137396e+00   6.2027345e+03
 8.5184202e+00   6.2467303e+03
 8.5230999e+00   6.3599647e+03
 8.5277796e+00   6.4281000e+03
 8.5324602e+00   6.5315670e+03
 8.5371399e+00   6.6095429e+03
 8.5418196e+00   6.7065953e+03
 8.5465002e+00   6.7905694e+03
 8.5511799e+00   6.8981254e+03
 8.5558596e+00   6.9950033e+03
 8.5605402e+00   7.0532967e+03
 8.5652199e+00   7.1484665e+03
 8.5698996e+00   7.1695865e+03
 8.5745802e+00   7.2491230e+03
 8.5792599e+00   7.2585115e+03
 8.5839396e+00   7.2939368e+03
 8.5886202e+00   7.2533791e+03
 8.5932999e+00   7.2424187e+03
 8.5979795e+00   7.1757709e+03
 8.6026602e+00   7.1185987e+03
 8.6073399e+00   7.0442413e+03
 8.6120195e+00   6.9523315e+03
 8.6167002e+00   6.8664975e+03
 8.6213799e+00   6.7535037e+03
 8.6260595e+00   6.6434300e+03
 8.6307402e+00   6.5484163e+03
 8.6354198e+00   6.4633319e+03
 8.6400995e+00   6.3765303e+03
 8.6447802e+00   6.2893382e+03
 8.6494598e+00   6.1790671e+03
 8.6541405e+00   6.1056119e+03
 8.6588202e+00   6.0232586e+03
 8.6634998e+00   5.9631166e+03
 8.6681805e+00   5.8874350e+03
 8.6728601e+00   5.8333652e+03
 8.6775398e+00   5.7588869e+03
 8.6822205e+00   5.7102637e+03
 8.6869001e+00   5.6667841e+03
 8.6915798e+00   5.6301102e+03
 8.6962605e+00   5.6022455e+03
 8.7009401e+00   5.5561429e+03
 8.7056198e+00   5.5208072e+03
 8.7103004e+00   5.4934921e+03
 8.7149801e+00   5.4816960e+03
 8.7196598e+00   5.4442344e+03
 8.7243404e+00   5.4174489e+03
 8.7290201e+00   5.3995285e+03
 8.7336998e+00   5.3901635e+03
 8.7383804e+00   5.3626747e+03
 8.7430601e+00   5.3524875e+03
 8.7477398e+00   5.3119752e+03
 8.7524204e+00   5.3193672e+03
 8.7571001e+00   5.2913032e+03
 8.7617798e+00   5.2853459e+03
 8.7664604e+00   5.2709004e+03
 8.7711401e+00   5.2554274e+03
 8.7758198e+00   5.2427064e+03
 8.7805004e+00   5.2224441e+03
 8.7851801e+00   5.2177346e+03
 8.7898598e+00   5.2136027e+03
 8.7945404e+00   5.1995566e+03
 8.7992201e+00   5.1859790e+03
 8.8038998e+00   5.1917737e+03
 8.8085804e+00   5.1708380e+03
 8.8132601e+00   5.1860582e+03
 8.8179398e+00   5.1511820e+03
 8.8226204e+00   5.1524549e+03
 8.8273001e+00   5.1252748e+03
 8.8319798e+00   5.1270839e+03
 8.8366604e+00   5.1094509e+03
 8.8413401e+00   5.1081072e+03
 8.8460197e+00   5.0891187e+03
 8.8507004e+00   5.0758670e+03
 8.8553801e+00   5.0564746e+03
 8.8600597e+00   5.0537576e+03
 8.8647404e+00   5.0460971e+03
 8.8694201e+00   5.0326541e+03
 8.8740997e+00   5.0207126e+03
 8.8787804e+00   5.0097117e+03
 8.8834600e+00   5.0088994e+03
 8.8881397e+00   4.9836996e+03
 8.8928204e+00   4.9886819e+03
 8.8975000e+00   4.9781148e+03
 8.9021797e+00   4.9889339e+03
 8.9068604e+00   4.9689500e+03
 8.9115400e+00   4.9762092e+03
 8.9162197e+00   4.9723474e+03
 8.9209003e+00   4.9787194e+03
 8.9255800e+00   4.9711790e+03
 8.9302597e+00   4.9671720e+03
 8.9349403e+00   4.9597424e+03
 8.9396200e+00   4.9578765e+03
 8.9442997e+00   4.9586361e+03
 8.9489803e+00   4.9490944e+03
 8.9536600e+00   4.9754049e+03
 8.9583397e+00   4.9566856e+03
 8.9630203e+00   4.9553097e+03
 8.9677000e+00   4.9556189e+03
 8.9723797e+00   4.9646825e+03
 8.9770603e+00   4.9598608e+03
 8.9817400e+00   4.9636479e+03
 8.9864197e+00   4.9557810e+03
 8.9911003e+00   4.9654472e+03
 8.9957800e+00   4.9466894e+03
 9.0004597e+00   4.9547074e+03
 9.0051403e+00   4.9611889e+03
 9.0098200e+00   4.9464132e+03
 9.0144997e+00   4.9442990e+03
 9.0191803e+00   4.9419978e+03
 9.0238600e+00   4.9311221e+03
 9.0285397e+00   4.9285456e+03
 9.0332203e+00   4.9282156e+03
 9.0379000e+00   4.9299958e+03
 9.0425797e+00   4.9271250e+03
 9.0472603e+00   4.9237025e+03
 9.0519400e+00   4.9358119e+03
 9.0566196e+00   4.9113793e+03
 9.0613003e+00   4.9237807e+03
 9.0659800e+00   4.9113311e+03
 9.0706596e+00   4.9175908e+03
 9.0753403e+00   4.9130101e+03
 9.0800200e+00   4.9177857e+03
 9.0846996e+00   4.9114467e+03
 9.0893803e+00   4.9183420e+03
 9.0940599e+00   4.9130908e+03
 9.0987396e+00   4.9375397e+03
 9.1034203e+00   4.9293742e+03
 9.1080999e+00   4.9322474e+03
 9.1127796e+00   4.9414091e+03
 9.1174603e+00   4.9476195e+03
 9.1221399e+00   4.9608056e+03
 9.1268196e+00   4.9480979e+03
 9.1315002e+00   4.9733378e+03
 9.1361799e+00   4.9741699e+03
 9.1408596e+00   4.9851526e+03
 9.1455402e+00   4.9882620e+03
 9.1502199e+00   5.0003039e+03
 9.1548996e+00   5.0092150e+03
 9.1595802e+00   5.0301994e+03
 9.1642599e+00   5.0328959e+03
 9.1689396e+00   5.0521862e+03
 9.1736202e+00   5.0602733e+03
 9.1782999e+00   5.0720467e+03
 9.1829796e+00   5.1050188e+03
 9.1876602e+00   5.0984297e+03
 9.1923399e+00   5.1262440e+03
 9.1970196e+00   5.1292176e+03
 9.2017002e+00   5.1579474e+03
 9.2063799e+00   5.1650309e+03
 9.2110596e+00   5.1894369e+03
 9.2157402e+00   5.2063856e+03
 9.2204199e+00   5.2094791e+03
 9.2250996e+00   5.2231019e+03
 9.2297802e+00   5.2489152e+03
 9.2344599e+00   5.2445265e+03
 9.2391396e+00   5.2743686e+03
 9.2438202e+00   5.2830183e+03
 9.2484999e+00   5.2940497e+03
 9.2531796e+00   5.3172749e+03
 9.2578602e+00   5.3299654e+03
 9.2625399e+00   5.3517076e+03
 9.2672195e+00   5.3709469e+03
 9.2719002e+00   5.3968225e+03
 9.2765799e+00   5.4178364e+03
 9.2812595e+00   5.4450172e+03
 9.2859402e+00   5.4724286e+03
 9.2906199e+00   5.5038615e+03
 9.2952995e+00   5.5269012e+03
 9.2999802e+00   5.5273692e+03
 9.3046598e+00   5.5596045e+03
 9.3093395e+00   5.5853256e+03
 9.3140202e+00   5.6118305e+03
 9.3186998e+00   5.6260815e+03
 9.3233805e+00   5.6440501e+03
 9.3280602e+00   5.6673403e+03
 9.3327398e+00   5.6873803e+03
 9.3374205e+00   5.6877833e+03
 9.3421001e+00   5.6929559e+03
 9.3467798e+00   5.6789987e+03
 9.3514605e+00   5.6967303e+03
 9.3561401e+00   5.6645441e+03
 9.3608198e+00   5.6504535e+03
 9.3655005e+00   5.6446165e+03
 9.3701801e+00   5.5997819e+03
 9.3748598e+00   5.5829176e+03
 9.3795404e+00   5.5545903e+03
 9.3842201e+00   5.4961329e+03
 9.3888998e+00   5.4615563e+03
 9.3935804e+00   5.4279678e+03
 9.3982601e+00   5.3872107e+03
 9.4029398e+00   5.3558913e+03
 9.4076204e+00   5.3177454e+03
 9.4123001e+00   5.2936861e+03
 9.4169798e+00   5.2684674e+03
 9.4216604e+00   5.2342449e+03
 9.4263401e+00   5.2247954e+03
 9.4310198e+00   5.1933548e+03
 9.4357004e+00   5.1610702e+03
 9.4403801e+00   5.1550215e+03
 9.4450598e+00   5.1328491e+03
 9.4497404e+00   5.1350664e+03
 9.4544201e+00   5.1090745e+03
 9.4590998e+00   5.1060197e+03
 9.4637804e+00   5.1157828e+03
 9.4684601e+00   5.0975208e+03
 9.4731398e+00   5.1026312e+03
 9.4778204e+00   5.1101405e+03
 9.4825001e+00   5.1102792e+03
 9.4871798e+00   5.1113841e+03
 9.4918604e+00   5.1111510e+03
 9.4965401e+00   5.1105192e+03
 9.5012197e+00   5.1249157e+03
 9.5059004e+00   5.1186520e+03
 9.5105801e+00   5.1273011e+03
 9.5152597e+00   5.1333634e+03
 9.5199404e+00   5.1293801e+03
 9.5246201e+00   5.1318812e+03
 9.5292997e+00   5.1207204e+03
 9.5339804e+00   5.1423019e+03
 9.5386600e+00   5.1427818e+03
 9.5433397e+00   5.1398696e+03
 9.5480204e+00   5.1490523e+03
 9.5527000e+00   5.1765361e+03
 9.5573797e+00   5.1634973e+03
 9.5620604e+00   5.1919076e+03
 9.5667400e+00   5.1969153e+03
 9.5714197e+00   5.2031266e+03
 9.5761003e+00   5.2241323e+03
 9.5807800e+00   5.2307153e+03
 9.5854597e+00   5.2536541e+03
 9.5901403e+00   5.2749878e+03
 9.5948200e+00   5.2832423e+03
 9.5994997e+00   5.3093793e+03
 9.6041803e+00   5.3150396e+03
 9.6088600e+00   5.3315625e+03
 9.6135397e+00   5.3385921e+03
 9.6182203e+00   5.3521595e+03
 9.6229000e+00   5.3512898e+03
 9.6275797e+00   5.3647001e+03
 9.6322603e+00   5.3700703e+03
 9.6369400e+00   5.3624945e+03
 9.6416197e+00   5.3767311e+03
 9.6463003e+00   5.3697717e+03
 9.6509800e+00   5.3808181e+03
 9.6556597e+00   5.3894367e+03
 9.6603403e+00   5.3984296e+03
 9.6650200e+00   5.4153759e+03
 9.6696997e+00   5.4192615e+03
 9.6743803e+00   5.4320990e+03
 9.6790600e+00   5.4444379e+03
 9.6837397e+00   5.4555416e+03
 9.6884203e+00   5.4738263e+03
 9.6931000e+00   5.4576134e+03
 9.6977797e+00   5.4669355e+03
 9.7024603e+00   5.4530953e+03
 9.7071400e+00   5.4303191e+03
 9.7118196e+00   5.4077857e+03
 9.7165003e+00   5.3765103e+03
 9.7211800e+00   5.3445475e+03
 9.7258596e+00   5.3195426e+03
 9.7305403e+00   5.2715730e+03
 9.7352200e+00   5.2454537e+03
 9.7398996e+00   5.2131944e+03
 9.7445803e+00   5.1767981e+03
 9.7492599e+00   5.1734429e+03
 9.7539396e+00   5.1578374e+03
 9.7586203e+00   5.1313935e+03
 9.7632999e+00   5.1334574e+03
 9.7679796e+00   5.1102843e+03
 9.7726603e+00   5.1212960e+03
 9.7773399e+00   5.1385241e+03
 9.7820196e+00   5.1179427e+03
 9.7867002e+00   5.1505915e+03
 9.7913799e+00   5.1589182e+03
 9.7960596e+00   5.1654826e+03
 9.8007402e+00   5.1859224e+03
 9.8054199e+00   5.2256274e+03
 9.8100996e+00   5.2819030e+03
 9.8147802e+00   5.3573745e+03
 9.8194599e+00   5.4740308e+03
 9.8241396e+00   5.5941229e+03
 9.8288202e+00   5.6753844e+03
 9.8334999e+00   6.2731117e+03
 9.8381796e+00   6.7458296e+03
 9.8428602e+00   7.4495921e+03
 9.8475399e+00   8.4050355e+03
 9.8522196e+00   8.8423624e+03
 9.8569002e+00   9.9455908e+03
 9.8615799e+00   1.0862320e+04
 9.8662596e+00   1.1030260e+04
 9.8709402e+00   1.0294190e+04
 9.8756199e+00   9.4828536e+03
 9.8802996e+00   8.3360478e+03
 9.8849802e+00   6.9931385e+03
 9.8896599e+00   6.7193151e+03
 9.8943396e+00   6.4248197e+03
 9.8990202e+00   6.0270064e+03
 9.9036999e+00   5.7499381e+03
 9.9083796e+00   5.5791732e+03
 9.9130602e+00   5.4654032e+03
 9.9177399e+00   5.4238058e+03
 9.9224195e+00   5.3792991e+03
 9.9271002e+00   5.3516028e+03
 9.9317799e+00   5.3365866e+03
 9.9364595e+00   5.3315658e+03
 9.9411402e+00   5.3189061e+03
 9.9458199e+00   5.3362829e+03
 9.9504995e+00   5.3282402e+03
 9.9551802e+00   5.3183272e+03
 9.9598598e+00   5.3216047e+03
 9.9645395e+00   5.3409042e+03
 9.9692202e+00   5.3265333e+03
 9.9738998e+00   5.3325534e+03
 9.9785805e+00   5.3224754e+03
 9.9832602e+00   5.3401931e+03
 9.9879398e+00   5.3490977e+03
 9.9926205e+00   5.3457265e+03
 9.9973001e+00   5.3492635e+03
 1.0001980e+01   5.3467076e+03
 1.0006660e+01   5.3306014e+03
 1.0011340e+01   5.3278382e+03
 1.0016020e+01   5.3167205e+03
 1.0020700e+01   5.3169395e+03
 1.0025380e+01   5.3043282e+03
 1.0030060e+01   5.2901251e+03
 1.0034740e+01   5.2800413e+03
 1.0039420e+01   5.2655111e+03
 1.0044100e+01   5.2511059e+03
 1.0048780e+01   5.2537295e+03
 1.0053460e+01   5.2296314e+03
 1.0058140e+01   5.2225135e+03
 1.0062820e+01   5.2219747e+03
 1.0067500e+01   5.2228731e+03
 1.0072180e+01   5.2068816e+03
 1.0076860e+01   5.2052587e+03
 1.0081540e+01   5.1933579e+03
 1.0086220e+01   5.1919383e+03
 1.0090900e+01   5.1864294e+03
 1.0095580e+01   5.1893487e+03
 1.0100260e+01   5.1874066e+03
 1.0104940e+01   5.1936716e+03
 1.0109620e+01   5.1902669e+03
 1.0114300e+01   5.1854035e+03
 1.0118980e+01   5.2032931e+03
 1.0123660e+01   5.1911808e+03
 1.0128340e+01   5.1969846e+03
 1.0133020e+01   5.2071310e+03
 1.0137700e+01   5.2191734e+03
 1.0142380e+01   5.2182030e+03
 1.0147060e+01   5.2329343e+03
 1.0151740e+01   5.2443924e+03
 1.0156420e+01   5.2619293e+03
 1.0161100e+01   5.2585481e+03
 1.0165780e+01   5.2836395e+03
 1.0170460e+01   5.3091531e+03
 1.0175140e+01   5.3293394e+03
 1.0179820e+01   5.3495372e+03
 1.0184500e+01   5.3679625e+03
 1.0189180e+01   5.3847517e+03
 1.0193860e+01   5.4408395e+03
 1.0198540e+01   5.4611020e+03
 1.0203220e+01   5.4812863e+03
 1.0207900e+01   5.5208932e+03
 1.0212580e+01   5.5393816e+03
 1.0217260e+01   5.5856890e+03
 1.0221940e+01   5.6036773e+03
 1.0226620e+01   5.6137672e+03
 1.0231300e+01   5.6595964e+03
 1.0235980e+01   5.6833600e+03
 1.0240660e+01   5.6926252e+03
 1.0245340e+01   5.7005258e+03
 1.0250020e+01   5.7033551e+03
 1.0254700e+01   5.7355729e+03
 1.0259380e+01   5.7529393e+03
 1.0264060e+01   5.8066086e+03
 1.0268740e+01   5.9121014e+03
 1.0273420e+01   5.9310371e+03
 1.0278100e+01   5.8273085e+03
 1.0282780e+01   5.7716490e+03
 1.0287460e+01   5.8589506e+03
 1.0292140e+01   5.9874070e+03
 1.0296820e+01   6.0143768e+03
 1.0301500e+01   6.0682005e+03
 1.0306180e+01   6.0815286e+03
 1.0310860e+01   5.9498512e+03
 1.0315540e+01   5.8965540e+03
 1.0320220e+01   5.7555463e+03
 1.0324900e+01   5.8501675e+03
 1.0329580e+01   5.9468188e+03
 1.0334260e+01   5.6880910e+03
 1.0338940e+01   5.4883845e+03
 1.0343620e+01   5.3891133e+03
 1.0348300e+01   5.3270326e+03
 1.0352980e+01   5.2763598e+03
 1.0357660e+01   5.2570744e+03
 1.0362340e+01   5.2231535e+03
 1.0367020e+01   5.2198117e+03
 1.0371700e+01   5.2043567e+03
 1.0376380e+01   5.2032941e+03
 1.0381060e+01   5.1959319e+03
 1.0385740e+01   5.2182349e+03
 1.0390420e+01   5.2036175e+03
 1.0395100e+01   5.2071732e+03
 1.0399780e+01   5.2182047e+03
 1.0404460e+01   5.2173072e+03
 1.0409140e+01   5.2400912e+03
 1.0413820e+01   5.2256039e+03
 1.0418500e+01   5.2453908e+03
 1.0423180e+01   5.2526250e+03
 1.0427860e+01   5.2605471e+03
 1.0432540e+01   5.2701259e+03
 1.0437220e+01   5.2948267e+03
 1.0441900e+01   5.3079363e+03
 1.0446580e+01   5.3253437e+03
 1.0451260e+01   5.3382819e+03
 1.0455940e+01   5.3447014e+03
 1.0460620e+01   5.3628091e+03
 1.0465300e+01   5.3794255e+03
 1.0469980e+01   5.4034893e+03
 1.0474660e+01   5.4121062e+03
 1.0479340e+01   5.4247742e+03
 1.0484020e+01   5.4285637e+03
 1.0488700e+01   5.4192875e+03
 1.0493380e+01   5.4347969e+03
 1.0498060e+01   5.4292405e+03
 1.0502740e+01   5.4231839e+03
 1.0507420e+01   5.4217910e+03
 1.0512100e+01   5.4051578e+03
 1.0516780e+01   5.3858068e+03
 1.0521460e+01   5.3733534e+03
 1.0526140e+01   5.3559531e+03
 1.0530820e+01   5.3572349e+03
 1.0535500e+01   5.3529194e+03
 1.0540180e+01   5.3040114e+03
 1.0544860e+01   5.3115946e+03
 1.0549540e+01   5.2835641e+03
 1.0554220e+01   5.2634936e+03
 1.0558900e+01   5.2442335e+03
 1.0563580e+01   5.2301568e+03
 1.0568260e+01   5.2215000e+03
 1.0572940e+01   5.1965863e+03
 1.0577620e+01   5.1825531e+03
 1.0582300e+01   5.1621908e+03
 1.0586980e+01   5.1556644e+03
 1.0591660e+01   5.1384646e+03
 1.0596340e+01   5.1237719e+03
 1.0601020e+01   5.1164825e+03
 1.0605700e+01   5.1059589e+03
 1.0610380e+01   5.0990475e+03
 1.0615060e+01   5.0822898e+03
 1.0619740e+01   5.0752097e+03
 1.0624420e+01   5.0627506e+03
 1.0629100e+01   5.0643249e+03
 1.0633780e+01   5.0517555e+03
 1.0638460e+01   5.0471791e+03
 1.0643140e+01   5.0292152e+03
 1.0647820e+01   5.0382364e+03
 1.0652500e+01   5.0297910e+03
 1.0657180e+01   5.0344923e+03
 1.0661860e+01   5.0224798e+03
 1.0666540e+01   5.0207282e+03
 1.0671220e+01   5.0197681e+03
 1.0675900e+01   5.0266717e+03
 1.0680580e+01   5.0283391e+03
 1.0685260e+01   5.0194016e+03
 1.0689940e+01   5.0365918e+03
 1.0694620e+01   5.0290799e+03
 1.0699300e+01   5.0420310e+03
 1.0703980e+01   5.0379055e+03
 1.0708660e+01   5.0473203e+03
 1.0713340e+01   5.0529409e+03
 1.0718020e+01   5.0591841e+03
 1.0722700e+01   5.0620783e+03
 1.0727380e+01   5.0913494e+03
 1.0732060e+01   5.0973696e+03
 1.0736740e+01   5.1156746e+03
 1.0741420e+01   5.1105302e+03
 1.0746100e+01   5.1197173e+03
 1.0750780e+01   5.1357592e+03
 1.0755460e+01   5.1264151e+03
 1.0760140e+01   5.1304705e+03
 1.0764820e+01   5.1375235e+03
 1.0769500e+01   5.1473974e+03
 1.0774180e+01   5.1411314e+03
 1.0778860e+01   5.1532395e+03
 1.0783540e+01   5.1311608e+03
 1.0788220e+01   5.1421837e+03
 1.0792900e+01   5.1206063e+03
 1.0797580e+01   5.1330088e+03
 1.0802260e+01   5.1199928e+03
 1.0806940e+01   5.1134358e+03
 1.0811620e+01   5.1133627e+03
 1.0816300e+01   5.1137707e+03
 1.0820980e+01   5.1127863e+03
 1.0825660e+01   5.1122523e+03
 1.0830340e+01   5.1001534e+03
 1.0835020e+01   5.0907136e+03
 1.0839700e+01   5.0797677e+03
 1.0844380e+01   5.0788539e+03
 1.0849060e+01   5.0802502e+03
 1.0853740e+01   5.0603554e+03
 1.0858420e+01   5.0427011e+03
 1.0863100e+01   5.0461927e+03
 1.0867780e+01   5.0368614e+03
 1.0872460e+01   5.0232218e+03
 1.0877140e+01   5.0073999e+03
 1.0881820e+01   4.9982398e+03
 1.0886500e+01   4.9747357e+03
 1.0891180e+01   4.9615026e+03
 1.0895860e+01   4.9509050e+03
 1.0900540e+01   4.9493508e+03
 1.0905220e+01   4.9313631e+03
 1.0909900e+01   4.9227422e+03
 1.0914580e+01   4.9052060e+03
 1.0919260e+01   4.8950169e+03
 1.0923940e+01   4.8898353e+03
 1.0928620e+01   4.8788191e+03
 1.0933300e+01   4.8773938e+03
 1.0937980e+01   4.8666703e+03
 1.0942660e+01   4.8544743e+03
 1.0947340e+01   4.8471572e+03
 1.0952020e+01   4.8382543e+03
 1.0956700e+01   4.8318125e+03
 1.0961380e+01   4.8377771e+03
 1.0966060e+01   4.8117463e+03
 1.0970740e+01   4.8281443e+03
 1.0975420e+01   4.8010599e+03
 1.0980100e+01   4.7950297e+03
 1.0984780e+01   4.7908188e+03
 1.0989460e+01   4.7966648e+03
 1.0994140e+01   4.7868926e+03
 1.0998820e+01   4.7995676e+03
 1.1003500e+01   4.7723435e+03
 1.1008180e+01   4.7787917e+03
 1.1012860e+01   4.7966273e+03
 1.1017540e+01   4.7680236e+03
 1.1022220e+01   4.7863429e+03
 1.1026900e+01   4.7712699e+03
 1.1031580e+01   4.7752031e+03
 1.1036260e+01   4.7809289e+03
 1.1040940e+01   4.7884090e+03
 1.1045620e+01   4.7838630e+03
 1.1050300e+01   4.7922415e+03
 1.1054980e+01   4.7875553e+03
 1.1059660e+01   4.8065101e+03
 1.1064340e+01   4.7977406e+03
 1.1069020e+01   4.7947416e+03
 1.1073700e+01   4.8090331e+03
 1.1078380e+01   4.8034886e+03
 1.1083060e+01   4.8216443e+03
 1.1087740e+01   4.8173256e+03
 1.1092420e+01   4.8362156e+03
 1.1097100e+01   4.8450234e+03
 1.1101780e+01   4.8395650e+03
 1.1106460e+01   4.8670667e+03
 1.1111140e+01   4.8767420e+03
 1.1115820e+01   4.8831126e+03
 1.1120500e+01   4.9038315e+03
 1.1125180e+01   4.9082564e+03
 1.1129860e+01   4.9282446e+03
 1.1134540e+01   4.9400057e+03
 1.1139220e+01   4.9285578e+03
 1.1143900e+01   4.9599577e+03
 1.1148580e+01   4.9450831e+03
 1.1153260e+01   4.9620434e+03
 1.1157940e+01   4.9648712e+03
 1.1162620e+01   4.9575581e+03
 1.1167300e+01   4.9449293e+03
 1.1171980e+01   4.9438508e+03
 1.1176660e+01   4.9357756e+03
 1.1181340e+01   4.9405602e+03
 1.1186020e+01   4.9314172e+03
 1.1190700e+01   4.9211640e+03
 1.1195380e+01   4.9177151e+03
 1.1200060e+01   4.8935899e+03
 1.1204740e+01   4.8904343e+03
 1.1209420e+01   4.8869703e+03
 1.1214100e+01   4.8690497e+03
 1.1218780e+01   4.8586091e+03
 1.1223460e+01   4.8486993e+03
 1.1228140e+01   4.8344375e+03
 1.1232820e+01   4.8248625e+03
 1.1237500e+01   4.7995294e+03
 1.1242180e+01   4.8046869e+03
 1.1246860e+01   4.7796483e+03
 1.1251540e+01   4.7534752e+03
 1.1256220e+01   4.7493035e+03
 1.1260900e+01   4.7343186e+03
 1.1265580e+01   4.7234286e+03
 1.1270260e+01   4.6998615e+03
 1.1274940e+01   4.6870186e+03
 1.1279620e+01   4.6795264e+03
 1.1284300e+01   4.6653313e+03
 1.1288980e+01   4.6574036e+03
 1.1293660e+01   4.6490946e+03
 1.1298340e+01   4.6330388e+03
 1.1303020e+01   4.6286055e+03
 1.1307700e+01   4.6220806e+03
 1.1312380e+01   4.6072199e+03
 1.1317060e+01   4.6035548e+03
 1.1321740e+01   4.5944583e+03
 1.1326420e+01   4.6020904e+03
 1.1331100e+01   4.5919511e+03
 1.1335780e+01   4.5714121e+03
 1.1340460e+01   4.5769972e+03
 1.1345140e+01   4.5702123e+03
 1.1349820e+01   4.5532219e+03
 1.1354500e+01   4.5672917e+03
 1.1359180e+01   4.5455082e+03
 1.1363860e+01   4.5491538e+03
 1.1368540e+01   4.5359083e+03
 1.1373220e+01   4.5241287e+03
 1.1377900e+01   4.5315728e+03
 1.1382580e+01   4.5286039e+03
 1.1387260e+01   4.5262357e+03
 1.1391940e+01   4.5266765e+03
 1.1396620e+01   4.5115081e+03
 1.1401300e+01   4.5191464e+03
 1.1405980e+01   4.5205996e+03
 1.1410660e+01   4.5025634e+03
 1.1415340e+01   4.5033862e+03
 1.1420020e+01   4.4996901e+03
 1.1424700e+01   4.4962445e+03
 1.1429380e+01   4.4969568e+03
 1.1434060e+01   4.4791269e+03
 1.1438740e+01   4.4855348e+03
 1.1443420e+01   4.4761605e+03
 1.1448100e+01   4.4754864e+03
 1.1452780e+01   4.4843151e+03
 1.1457460e+01   4.4777786e+03
 1.1462140e+01   4.4709749e+03
 1.1466820e+01   4.4842851e+03
 1.1471500e+01   4.4686425e+03
 1.1476180e+01   4.4795465e+03
 1.1480860e+01   4.4697010e+03
 1.1485540e+01   4.4612360e+03
 1.1490220e+01   4.4659218e+03
 1.1494900e+01   4.4574350e+03
 1.1499580e+01   4.4585795e+03
 1.1504260e+01   4.4600008e+03
 1.1508940e+01   4.4567037e+03
 1.1513620e+01   4.4540769e+03
 1.1518300e+01   4.4468133e+03
 1.1522980e+01   4.4462669e+03
 1.1527660e+01   4.4475464e+03
 1.1532340e+01   4.4312826e+03
 1.1537020e+01   4.4359427e+03
 1.1541700e+01   4.4280095e+03
 1.1546380e+01   4.4203078e+03
 1.1551060e+01   4.4207174e+03
 1.1555740e+01   4.4141302e+03
 1.1560420e+01   4.4199378e+03
 1.1565100e+01   4.4131136e+03
 1.1569780e+01   4.4129920e+03
 1.1574460e+01   4.4191667e+03
 1.1579140e+01   4.4113379e+03
 1.1583820e+01   4.4043015e+03
 1.1588500e+01   4.4023190e+03
 1.1593180e+01   4.4083350e+03
 1.1597860e+01   4.4058189e+03
 1.1602540e+01   4.4020306e+03
 1.1607220e+01   4.4061032e+03
 1.1611900e+01   4.4013224e+03
 1.1616580e+01   4.4006459e+03
 1.1621260e+01   4.3908109e+03
 1.1625940e+01   4.3943562e+03
 1.1630620e+01   4.3887986e+03
 1.1635300e+01   4.3971463e+03
 1.1639980e+01   4.3864084e+03
 1.1644660e+01   4.3868449e+03
 1.1649340e+01   4.3924803e+03
 1.1654020e+01   4.3881932e+03
 1.1658700e+01   4.3856401e+03
 1.1663380e+01   4.3811841e+03
 1.1668060e+01   4.3721838e+03
 1.1672740e+01   4.3768880e+03
 1.1677420e+01   4.3584382e+03
 1.1682100e+01   4.3626301e+03
 1.1686780e+01   4.3561819e+03
 1.1691460e+01   4.3521566e+03
 1.1696140e+01   4.3608292e+03
 1.1700820e+01   4.3555708e+03
 1.1705500e+01   4.3507072e+03
 1.1710180e+01   4.3509971e+03
 1.1714860e+01   4.3440191e+03
 1.1719540e+01   4.3398749e+03
 1.1724220e+01   4.3432999e+03
 1.1728900e+01   4.3347094e+03
 1.1733580e+01   4.3512662e+03
 1.1738260e+01   4.3263168e+03
 1.1742940e+01   4.3389146e+03
 1.1747620e+01   4.3316300e+03
 1.1752300e+01   4.3329197e+03
 1.1756980e+01   4.3356894e+03
 1.1761660e+01   4.3382342e+03
 1.1766340e+01   4.3456705e+03
 1.1771020e+01   4.3454558e+03
 1.1775700e+01   4.3419071e+03
 1.1780380e+01   4.3409466e+03
 1.1785060e+01   4.3413483e+03
 1.1789740e+01   4.3339272e+03
 1.1794420e+01   4.3516189e+03
 1.1799100e+01   4.3349078e+03
 1.1803780e+01   4.3409789e+03
 1.1808460e+01   4.3479951e+03
 1.1813140e+01   4.3459273e+03
 1.1817820e+01   4.3581467e+03
 1.1822500e+01   4.3691888e+03
 1.1827180e+01   4.3545178e+03
 1.1831860e+01   4.3696935e+03
 1.1836540e+01   4.3686486e+03
 1.1841220e+01   4.3863591e+03
 1.1845900e+01   4.3993489e+03
 1.1850580e+01   4.3922550e+03
 1.1855260e+01   4.4207332e+03
 1.1859940e+01   4.4294084e+03
 1.1864620e+01   4.4433534e+03
 1.1869300e+01   4.4845232e+03
 1.1873980e+01   4.4992190e+03
 1.1878660e+01   4.5296153e+03
 1.1883340e+01   4.5450850e+03
 1.1888020e+01   4.5723548e+03
 1.1892700e+01   4.6129166e+03
 1.1897380e+01   4.6637805e+03
 1.1902060e+01   4.6839491e+03
 1.1906740e+01   4.7107740e+03
 1.1911420e+01   4.6967863e+03
 1.1916100e+01   4.7096886e+03
 1.1920780e+01   4.6761150e+03
 1.1925460e+01   4.6693800e+03
 1.1930140e+01   4.6508264e+03
 1.1934820e+01   4.6555537e+03
 1.1939500e+01   4.6474710e+03
 1.1944180e+01   4.6309476e+03
 1.1948860e+01   4.6120654e+03
 1.1953540e+01   4.6099426e+03
 1.1958220e+01   4.6164402e+03
 1.1962900e+01   4.6083643e+03
 1.1967580e+01   4.6268176e+03
 1.1972260e+01   4.6170614e+03
 1.1976940e+01   4.6211465e+03
 1.1981620e+01   4.6163875e+03
 1.1986300e+01   4.6062946e+03
 1.1990980e+01   4.6129655e+03
 1.1995660e+01   4.6008223e+03
 1.2000340e+01   4.5982284e+03
 1.2005020e+01   4.5833006e+03
 1.2009700e+01   4.5732174e+03
 1.2014380e+01   4.5572540e+03
 1.2019060e+01   4.5558620e+03
 1.2023740e+01   4.5386211e+03
 1.2028420e+01   4.5341107e+03
 1.2033100e+01   4.5041794e+03
 1.2037780e+01   4.5037203e+03
 1.2042460e+01   4.4861332e+03
 1.2047140e+01   4.4595109e+03
 1.2051820e+01   4.4469143e+03
 1.2056500e+01   4.4382072e+03
 1.2061180e+01   4.4304574e+03
 1.2065860e+01   4.4197968e+03
 1.2070540e+01   4.4087571e+03
 1.2075220e+01   4.3890059e+03
 1.2079900e+01   4.3886838e+03
 1.2084580e+01   4.3702737e+03
 1.2089260e+01   4.3693035e+03
 1.2093940e+01   4.3499543e+03
 1.2098620e+01   4.3457138e+03
 1.2103300e+01   4.3340976e+03
 1.2107980e+01   4.3289783e+03
 1.2112660e+01   4.3252879e+03
 1.2117340e+01   4.3116705e+03
 1.2122020e+01   4.3032226e+03
 1.2126700e+01   4.2883816e+03
 1.2131380e+01   4.2654770e+03
 1.2136060e+01   4.2630008e+03
 1.2140740e+01   4.2550872e+03
 1.2145420e+01   4.2349914e+03
 1.2150100e+01   4.2364459e+03
 1.2154780e+01   4.2150607e+03
 1.2159460e+01   4.2068805e+03
 1.2164140e+01   4.1957090e+03
 1.2168820e+01   4.1938581e+03
 1.2173500e+01   4.1800525e+03
 1.2178180e+01   4.1734908e+03
 1.2182860e+01   4.1663938e+03
 1.2187540e+01   4.1552176e+03
 1.2192220e+01   4.1450364e+03
 1.2196900e+01   4.1466050e+03
 1.2201580e+01   4.1369989e+03
 1.2206260e+01   4.1300185e+03
 1.2210940e+01   4.1283816e+03
 1.2215620e+01   4.1257525e+03
 1.2220300e+01   4.1278171e+03
 1.2224980e+01   4.1185289e+03
 1.2229660e+01   4.1159577e+03
 1.2234340e+01   4.1195511e+03
 1.2239020e+01   4.1022981e+03
 1.2243700e+01   4.1017255e+03
 1.2248380e+01   4.1007527e+03
 1.2253060e+01   4.1015373e+03
 1.2257740e+01   4.0867735e+03
 1.2262420e+01   4.1033743e+03
 1.2267100e+01   4.0935494e+03
 1.2271780e+01   4.0909570e+03
 1.2276460e+01   4.0957467e+03
 1.2281140e+01   4.0847885e+03
 1.2285820e+01   4.0859678e+03
 1.2290500e+01   4.0781490e+03
 1.2295180e+01   4.0827330e+03
 1.2299860e+01   4.0828196e+03
 1.2304540e+01   4.0815240e+03
 1.2309220e+01   4.0806596e+03
 1.2313900e+01   4.0849285e+03
 1.2318580e+01   4.0780197e+03
 1.2323260e+01   4.0888443e+03
 1.2327940e+01   4.0772078e+03
 1.2332620e+01   4.0770460e+03
 1.2337300e+01   4.0823497e+03
 1.2341980e+01   4.0913747e+03
 1.2346660e+01   4.0870970e+03
 1.2351340e+01   4.0877454e+03
 1.2356020e+01   4.1001203e+03
 1.2360700e+01   4.0978174e+03
 1.2365380e+01   4.1057220e+03
 1.2370060e+01   4.1149093e+03
 1.2374740e+01   4.1148272e+03
 1.2379420e+01   4.1138391e+03
 1.2384100e+01   4.1306209e+03
 1.2388780e+01   4.1204953e+03
 1.2393460e+01   4.1342835e+03
 1.2398140e+01   4.1319615e+03
 1.2402820e+01   4.1310670e+03
 1.2407500e+01   4.1428276e+03
 1.2412180e+01   4.1332590e+03
 1.2416860e+01   4.1425068e+03
 1.2421540e+01   4.1410976e+03
 1.2426220e+01   4.1395962e+03
 1.2430900e+01   4.1413938e+03
 1.2435580e+01   4.1329497e+03
 1.2440260e+01   4.1450101e+03
 1.2444940e+01   4.1295255e+03
 1.2449620e+01   4.1298193e+03
 1.2454300e+01   4.1390064e+03
 1.2458980e+01   4.1296352e+03
 1.2463660e+01   4.1243664e+03
 1.2468340e+01   4.1377820e+03
 1.2473020e+01   4.1235821e+03
 1.2477700e+01   4.1251504e+03
 1.2482380e+01   4.1255668e+03
 1.2487060e+01   4.1156436e+03
 1.2491740e+01   4.1109830e+03
 1.2496420e+01   4.1090706e+03
 1.2501100e+01   4.0963039e+03
 1.2505780e+01   4.0955285e+03
 1.2510460e+01   4.0961598e+03
 1.2515140e+01   4.0975722e+03
 1.2519820e+01   4.0872422e+03
 1.2524500e+01   4.0830358e+03
 1.2529180e+01   4.0767595e+03
 1.2533860e+01   4.0793047e+03
 1.2538540e+01   4.0816362e+03
 1.2543220e+01   4.0628767e+03
 1.2547900e+01   4.0631360e+03
 1.2552580e+01   4.0605554e+03
 1.2557260e+01   4.0600314e+03
 1.2561940e+01   4.0680648e+03
 1.2566620e+01   4.0577223e+03
 1.2571300e+01   4.0657996e+03
 1.2575980e+01   4.0619138e+03
 1.2580660e+01   4.0594412e+03
 1.2585340e+01   4.0640994e+03
 1.2590020e+01   4.0751969e+03
 1.2594700e+01   4.0727521e+03
 1.2599380e+01   4.0792456e+03
 1.2604060e+01   4.0821994e+03
 1.2608740e+01   4.0845163e+03
 1.2613420e+01   4.0898371e+03
 1.2618100e+01   4.0935406e+03
 1.2622780e+01   4.0985032e+03
 1.2627460e+01   4.1021527e+03
 1.2632140e+01   4.1194643e+03
 1.2636820e+01   4.1126268e+03
 1.2641500e+01   4.1261786e+03
 1.2646180e+01   4.1399509e+03
 1.2650860e+01   4.1399739e+03
 1.2655540e+01   4.1427056e+03
 1.2660220e+01   4.1623791e+03
 1.2664900e+01   4.1577159e+03
 1.2669580e+01   4.1773307e+03
 1.2674260e+01   4.1852955e+03
 1.2678940e+01   4.1938411e+03
 1.2683620e+01   4.1939187e+03
 1.2688300e+01   4.2151249e+03
 1.2692980e+01   4.2221941e+03
 1.2697660e+01   4.2266488e+03
