MA2b-00002.tif Azm= 0.00
2-Theta Angle (Degrees)
Intensity
       2500
 1.0023400e+00   7.8851572e+03
 1.0070200e+00   7.8958918e+03
 1.0117000e+00   7.8283256e+03
 1.0163800e+00   7.8217736e+03
 1.0210600e+00   7.8000709e+03
 1.0257400e+00   7.7665928e+03
 1.0304199e+00   7.7650765e+03
 1.0351000e+00   7.7388582e+03
 1.0397800e+00   7.7226616e+03
 1.0444601e+00   7.6732727e+03
 1.0491400e+00   7.5865635e+03
 1.0538200e+00   7.6425207e+03
 1.0585001e+00   7.5759690e+03
 1.0631800e+00   7.5743608e+03
 1.0678600e+00   7.5478392e+03
 1.0725400e+00   7.5235966e+03
 1.0772200e+00   7.4989071e+03
 1.0819000e+00   7.5164843e+03
 1.0865800e+00   7.4707975e+03
 1.0912600e+00   7.4620561e+03
 1.0959400e+00   7.4482015e+03
 1.1006200e+00   7.4305570e+03
 1.1052999e+00   7.4218487e+03
 1.1099800e+00   7.3674076e+03
 1.1146600e+00   7.3705851e+03
 1.1193399e+00   7.3091754e+03
 1.1240200e+00   7.3187780e+03
 1.1287000e+00   7.3077080e+03
 1.1333801e+00   7.3323528e+03
 1.1380600e+00   7.2635426e+03
 1.1427400e+00   7.2559454e+03
 1.1474200e+00   7.2318204e+03
 1.1521000e+00   7.2572282e+03
 1.1567800e+00   7.2246559e+03
 1.1614600e+00   7.2182995e+03
 1.1661400e+00   7.2185831e+03
 1.1708200e+00   7.2311449e+03
 1.1755000e+00   7.1859127e+03
 1.1801800e+00   7.1957227e+03
 1.1848600e+00   7.1673367e+03
 1.1895400e+00   7.1765916e+03
 1.1942199e+00   7.1536087e+03
 1.1989000e+00   7.1586247e+03
 1.2035800e+00   7.1304666e+03
 1.2082601e+00   7.1798284e+03
 1.2129400e+00   7.1352311e+03
 1.2176200e+00   7.1269554e+03
 1.2223001e+00   7.1305436e+03
 1.2269800e+00   7.0839703e+03
 1.2316600e+00   7.0962864e+03
 1.2363400e+00   7.1203443e+03
 1.2410200e+00   7.0882577e+03
 1.2457000e+00   7.0905208e+03
 1.2503800e+00   7.0867104e+03
 1.2550600e+00   7.0742715e+03
 1.2597400e+00   7.1013256e+03
 1.2644200e+00   7.0814065e+03
 1.2691000e+00   7.0888095e+03
 1.2737800e+00   7.0723117e+03
 1.2784600e+00   7.0794293e+03
 1.2831399e+00   7.1001175e+03
 1.2878200e+00   7.1065066e+03
 1.2925000e+00   7.1003611e+03
 1.2971801e+00   7.0862423e+03
 1.3018600e+00   7.1012559e+03
 1.3065400e+00   7.1025092e+03
 1.3112200e+00   7.1092892e+03
 1.3159000e+00   7.1084056e+03
 1.3205800e+00   7.1285515e+03
 1.3252600e+00   7.1198631e+03
 1.3299400e+00   7.1034143e+03
 1.3346200e+00   7.1668908e+03
 1.3393000e+00   7.1335220e+03
 1.3439800e+00   7.1533228e+03
 1.3486600e+00   7.1529356e+03
 1.3533400e+00   7.1484571e+03
 1.3580199e+00   7.1505641e+03
 1.3627000e+00   7.1503578e+03
 1.3673800e+00   7.1939999e+03
 1.3720599e+00   7.1966424e+03
 1.3767400e+00   7.1725478e+03
 1.3814200e+00   7.1933898e+03
 1.3861001e+00   7.2130995e+03
 1.3907800e+00   7.2415277e+03
 1.3954600e+00   7.2442641e+03
 1.4001400e+00   7.2393908e+03
 1.4048200e+00   7.2788219e+03
 1.4095000e+00   7.2551103e+03
 1.4141800e+00   7.2890007e+03
 1.4188600e+00   7.2993660e+03
 1.4235400e+00   7.3078066e+03
 1.4282200e+00   7.3399701e+03
 1.4329000e+00   7.3906749e+03
 1.4375800e+00   7.3863614e+03
 1.4422600e+00   7.4049592e+03
 1.4469399e+00   7.4307409e+03
 1.4516200e+00   7.4701461e+03
 1.4563000e+00   7.4823960e+03
 1.4609801e+00   7.5166749e+03
 1.4656600e+00   7.5563449e+03
 1.4703400e+00   7.5311249e+03
 1.4750201e+00   7.6161476e+03
 1.4797000e+00   7.6131212e+03
 1.4843800e+00   7.6361233e+03
 1.4890600e+00   7.6481657e+03
 1.4937400e+00   7.6832649e+03
 1.4984200e+00   7.7033802e+03
 1.5031000e+00   7.7195249e+03
 1.5077800e+00   7.7279264e+03
 1.5124600e+00   7.7612916e+03
 1.5171400e+00   7.7591613e+03
 1.5218199e+00   7.7763676e+03
 1.5265000e+00   7.7490879e+03
 1.5311800e+00   7.7971746e+03
 1.5358599e+00   7.7281235e+03
 1.5405400e+00   7.7453400e+03
 1.5452200e+00   7.7287110e+03
 1.5499001e+00   7.7319426e+03
 1.5545800e+00   7.7333989e+03
 1.5592600e+00   7.7338417e+03
 1.5639400e+00   7.6926712e+03
 1.5686200e+00   7.6988343e+03
 1.5733000e+00   7.7045701e+03
 1.5779800e+00   7.7215345e+03
 1.5826600e+00   7.6776136e+03
 1.5873400e+00   7.6977843e+03
 1.5920200e+00   7.6801335e+03
 1.5967000e+00   7.6848922e+03
 1.6013800e+00   7.6843190e+03
 1.6060600e+00   7.6876782e+03
 1.6107399e+00   7.6679596e+03
 1.6154200e+00   7.6826101e+03
 1.6201000e+00   7.6710131e+03
 1.6247801e+00   7.6717782e+03
 1.6294600e+00   7.7081024e+03
 1.6341400e+00   7.6855193e+03
 1.6388201e+00   7.6500452e+03
 1.6435000e+00   7.6802163e+03
 1.6481800e+00   7.6745019e+03
 1.6528600e+00   7.6896447e+03
 1.6575400e+00   7.6885653e+03
 1.6622200e+00   7.6837605e+03
 1.6669000e+00   7.7064606e+03
 1.6715800e+00   7.6948815e+03
 1.6762600e+00   7.6825668e+03
 1.6809400e+00   7.6969815e+03
 1.6856200e+00   7.6928335e+03
 1.6903000e+00   7.6792410e+03
 1.6949800e+00   7.6943773e+03
 1.6996599e+00   7.6779562e+03
 1.7043400e+00   7.7276936e+03
 1.7090200e+00   7.7066049e+03
 1.7137001e+00   7.6951291e+03
 1.7183800e+00   7.7287365e+03
 1.7230600e+00   7.7155930e+03
 1.7277400e+00   7.6961710e+03
 1.7324200e+00   7.7370230e+03
 1.7371000e+00   7.7024058e+03
 1.7417800e+00   7.7605368e+03
 1.7464600e+00   7.6966042e+03
 1.7511400e+00   7.7308135e+03
 1.7558200e+00   7.7195170e+03
 1.7605000e+00   7.7498137e+03
 1.7651800e+00   7.7408145e+03
 1.7698600e+00   7.7828609e+03
 1.7745399e+00   7.7519705e+03
 1.7792200e+00   7.7989044e+03
 1.7839000e+00   7.7949322e+03
 1.7885799e+00   7.8009161e+03
 1.7932600e+00   7.8182168e+03
 1.7979400e+00   7.8411272e+03
 1.8026201e+00   7.8369892e+03
 1.8073000e+00   7.8553852e+03
 1.8119800e+00   7.8952238e+03
 1.8166600e+00   7.9030720e+03
 1.8213400e+00   7.9327195e+03
 1.8260200e+00   7.9388631e+03
 1.8307000e+00   7.9564681e+03
 1.8353800e+00   7.9757427e+03
 1.8400600e+00   7.9909782e+03
 1.8447400e+00   8.0159570e+03
 1.8494200e+00   8.0044487e+03
 1.8541000e+00   8.0154823e+03
 1.8587800e+00   8.0848855e+03
 1.8634599e+00   8.0645442e+03
 1.8681400e+00   8.1058199e+03
 1.8728200e+00   8.1278235e+03
 1.8775001e+00   8.1436776e+03
 1.8821800e+00   8.1384234e+03
 1.8868600e+00   8.1704360e+03
 1.8915401e+00   8.1925148e+03
 1.8962200e+00   8.2040367e+03
 1.9009000e+00   8.2367629e+03
 1.9055800e+00   8.2596849e+03
 1.9102600e+00   8.2895741e+03
 1.9149400e+00   8.3099821e+03
 1.9196200e+00   8.3394376e+03
 1.9243000e+00   8.3798579e+03
 1.9289800e+00   8.3904672e+03
 1.9336600e+00   8.4384783e+03
 1.9383399e+00   8.4165279e+03
 1.9430200e+00   8.4634712e+03
 1.9477000e+00   8.4959487e+03
 1.9523799e+00   8.5136861e+03
 1.9570600e+00   8.5295593e+03
 1.9617400e+00   8.5770842e+03
 1.9664201e+00   8.5825663e+03
 1.9711000e+00   8.7110862e+03
 1.9757800e+00   8.6448241e+03
 1.9804600e+00   8.7044886e+03
 1.9851400e+00   8.6749306e+03
 1.9898200e+00   8.7027543e+03
 1.9945000e+00   8.7083429e+03
 1.9991800e+00   8.7231866e+03
 2.0038600e+00   8.8010374e+03
 2.0085399e+00   8.7819366e+03
 2.0132201e+00   8.8404561e+03
 2.0179000e+00   8.8648336e+03
 2.0225799e+00   8.8643007e+03
 2.0272601e+00   8.9000262e+03
 2.0319400e+00   8.9439944e+03
 2.0366199e+00   8.9639856e+03
 2.0413001e+00   8.9606032e+03
 2.0459800e+00   9.0022660e+03
 2.0506599e+00   9.0235589e+03
 2.0553401e+00   9.0675068e+03
 2.0600200e+00   9.0884638e+03
 2.0646999e+00   9.1318456e+03
 2.0693800e+00   9.1892913e+03
 2.0740600e+00   9.2158883e+03
 2.0787399e+00   9.2758128e+03
 2.0834200e+00   9.3426822e+03
 2.0881000e+00   9.4157249e+03
 2.0927801e+00   9.5134835e+03
 2.0974600e+00   9.6313968e+03
 2.1021399e+00   9.7760366e+03
 2.1068201e+00   9.9646520e+03
 2.1115000e+00   1.0224678e+04
 2.1161799e+00   1.0571494e+04
 2.1208601e+00   1.1063462e+04
 2.1255400e+00   1.1762823e+04
 2.1302199e+00   1.2779484e+04
 2.1349001e+00   1.3995457e+04
 2.1395800e+00   1.5497718e+04
 2.1442599e+00   1.7160549e+04
 2.1489401e+00   1.8954364e+04
 2.1536200e+00   2.0536454e+04
 2.1582999e+00   2.1946550e+04
 2.1629801e+00   2.3073634e+04
 2.1676600e+00   2.3966878e+04
 2.1723399e+00   2.4446285e+04
 2.1770201e+00   2.4541864e+04
 2.1817000e+00   2.4258282e+04
 2.1863799e+00   2.3522943e+04
 2.1910601e+00   2.2531822e+04
 2.1957400e+00   2.1371223e+04
 2.2004199e+00   2.0044958e+04
 2.2051001e+00   1.8817742e+04
 2.2097800e+00   1.7676123e+04
 2.2144599e+00   1.6752660e+04
 2.2191401e+00   1.5935273e+04
 2.2238200e+00   1.5337963e+04
 2.2284999e+00   1.4825002e+04
 2.2331800e+00   1.4454528e+04
 2.2378600e+00   1.4051468e+04
 2.2425399e+00   1.3669539e+04
 2.2472200e+00   1.3270448e+04
 2.2519000e+00   1.2831085e+04
 2.2565801e+00   1.2323155e+04
 2.2612600e+00   1.1898526e+04
 2.2659400e+00   1.1515431e+04
 2.2706201e+00   1.1200871e+04
 2.2753000e+00   1.0951186e+04
 2.2799799e+00   1.0788700e+04
 2.2846601e+00   1.0655231e+04
 2.2893400e+00   1.0571152e+04
 2.2940199e+00   1.0525768e+04
 2.2987001e+00   1.0510839e+04
 2.3033800e+00   1.0501728e+04
 2.3080599e+00   1.0503248e+04
 2.3127401e+00   1.0496822e+04
 2.3174200e+00   1.0513125e+04
 2.3220999e+00   1.0532198e+04
 2.3267801e+00   1.0549023e+04
 2.3314600e+00   1.0558819e+04
 2.3361399e+00   1.0589162e+04
 2.3408201e+00   1.0611640e+04
 2.3455000e+00   1.0646250e+04
 2.3501799e+00   1.0658193e+04
 2.3548601e+00   1.0694035e+04
 2.3595400e+00   1.0737414e+04
 2.3642199e+00   1.0742514e+04
 2.3689001e+00   1.0749417e+04
 2.3735800e+00   1.0802742e+04
 2.3782599e+00   1.0843204e+04
 2.3829401e+00   1.0870084e+04
 2.3876200e+00   1.0904780e+04
 2.3922999e+00   1.0934059e+04
 2.3969800e+00   1.0973042e+04
 2.4016600e+00   1.1004076e+04
 2.4063399e+00   1.1041328e+04
 2.4110200e+00   1.1066310e+04
 2.4157000e+00   1.1109456e+04
 2.4203801e+00   1.1153357e+04
 2.4250600e+00   1.1178440e+04
 2.4297400e+00   1.1223357e+04
 2.4344201e+00   1.1235399e+04
 2.4391000e+00   1.1281992e+04
 2.4437799e+00   1.1303132e+04
 2.4484601e+00   1.1350212e+04
 2.4531400e+00   1.1385195e+04
 2.4578199e+00   1.1428693e+04
 2.4625001e+00   1.1460789e+04
 2.4671800e+00   1.1481678e+04
 2.4718599e+00   1.1546861e+04
 2.4765401e+00   1.1580952e+04
 2.4812200e+00   1.1601075e+04
 2.4858999e+00   1.1651075e+04
 2.4905801e+00   1.1677069e+04
 2.4952600e+00   1.1722755e+04
 2.4999399e+00   1.1764588e+04
 2.5046201e+00   1.1792497e+04
 2.5093000e+00   1.1828921e+04
 2.5139799e+00   1.1862353e+04
 2.5186601e+00   1.1909539e+04
 2.5233400e+00   1.1969049e+04
 2.5280199e+00   1.1992076e+04
 2.5327001e+00   1.1999872e+04
 2.5373800e+00   1.2042807e+04
 2.5420599e+00   1.2075556e+04
 2.5467401e+00   1.2116320e+04
 2.5514200e+00   1.2145669e+04
 2.5560999e+00   1.2181148e+04
 2.5607800e+00   1.2208827e+04
 2.5654600e+00   1.2241995e+04
 2.5701399e+00   1.2300482e+04
 2.5748200e+00   1.2299913e+04
 2.5795000e+00   1.2348451e+04
 2.5841801e+00   1.2362986e+04
 2.5888600e+00   1.2406758e+04
 2.5935400e+00   1.2405393e+04
 2.5982201e+00   1.2457403e+04
 2.6029000e+00   1.2478273e+04
 2.6075799e+00   1.2478412e+04
 2.6122601e+00   1.2514848e+04
 2.6169400e+00   1.2554916e+04
 2.6216199e+00   1.2564834e+04
 2.6263001e+00   1.2599778e+04
 2.6309800e+00   1.2605780e+04
 2.6356599e+00   1.2643725e+04
 2.6403401e+00   1.2631525e+04
 2.6450200e+00   1.2659657e+04
 2.6496999e+00   1.2682589e+04
 2.6543801e+00   1.2705594e+04
 2.6590600e+00   1.2729045e+04
 2.6637399e+00   1.2754719e+04
 2.6684201e+00   1.2749415e+04
 2.6731000e+00   1.2768636e+04
 2.6777799e+00   1.2784030e+04
 2.6824601e+00   1.2767251e+04
 2.6871400e+00   1.2823750e+04
 2.6918199e+00   1.2821431e+04
 2.6965001e+00   1.2831661e+04
 2.7011800e+00   1.2843385e+04
 2.7058599e+00   1.2846835e+04
 2.7105401e+00   1.2866743e+04
 2.7152200e+00   1.2864281e+04
 2.7198999e+00   1.2869709e+04
 2.7245800e+00   1.2888828e+04
 2.7292600e+00   1.2875775e+04
 2.7339399e+00   1.2864494e+04
 2.7386200e+00   1.2866046e+04
 2.7433000e+00   1.2867221e+04
 2.7479801e+00   1.2876167e+04
 2.7526600e+00   1.2849212e+04
 2.7573400e+00   1.2832918e+04
 2.7620201e+00   1.2828580e+04
 2.7667000e+00   1.2833339e+04
 2.7713799e+00   1.2809967e+04
 2.7760601e+00   1.2831317e+04
 2.7807400e+00   1.2799366e+04
 2.7854199e+00   1.2792368e+04
 2.7901001e+00   1.2783901e+04
 2.7947800e+00   1.2767770e+04
 2.7994599e+00   1.2775218e+04
 2.8041401e+00   1.2748395e+04
 2.8088200e+00   1.2723493e+04
 2.8134999e+00   1.2738212e+04
 2.8181801e+00   1.2712744e+04
 2.8228600e+00   1.2688400e+04
 2.8275399e+00   1.2686790e+04
 2.8322201e+00   1.2666871e+04
 2.8369000e+00   1.2634157e+04
 2.8415799e+00   1.2620122e+04
 2.8462601e+00   1.2605740e+04
 2.8509400e+00   1.2600092e+04
 2.8556199e+00   1.2578168e+04
 2.8603001e+00   1.2572785e+04
 2.8649800e+00   1.2564429e+04
 2.8696599e+00   1.2532718e+04
 2.8743401e+00   1.2519680e+04
 2.8790200e+00   1.2514748e+04
 2.8836999e+00   1.2490502e+04
 2.8883801e+00   1.2469634e+04
 2.8930600e+00   1.2474112e+04
 2.8977399e+00   1.2424158e+04
 2.9024200e+00   1.2428744e+04
 2.9071000e+00   1.2420405e+04
 2.9117801e+00   1.2371632e+04
 2.9164600e+00   1.2366657e+04
 2.9211400e+00   1.2336790e+04
 2.9258201e+00   1.2336698e+04
 2.9305000e+00   1.2309216e+04
 2.9351799e+00   1.2292397e+04
 2.9398601e+00   1.2247355e+04
 2.9445400e+00   1.2261865e+04
 2.9492199e+00   1.2212898e+04
 2.9539001e+00   1.2222659e+04
 2.9585800e+00   1.2181439e+04
 2.9632599e+00   1.2167950e+04
 2.9679401e+00   1.2125632e+04
 2.9726200e+00   1.2116009e+04
 2.9772999e+00   1.2098007e+04
 2.9819801e+00   1.2076520e+04
 2.9866600e+00   1.2016481e+04
 2.9913399e+00   1.2002898e+04
 2.9960201e+00   1.1998761e+04
 3.0007000e+00   1.1951898e+04
 3.0053799e+00   1.1963849e+04
 3.0100601e+00   1.1917199e+04
 3.0147400e+00   1.1903639e+04
 3.0194199e+00   1.1869096e+04
 3.0241001e+00   1.1842753e+04
 3.0287800e+00   1.1832486e+04
 3.0334599e+00   1.1791997e+04
 3.0381401e+00   1.1762140e+04
 3.0428200e+00   1.1733136e+04
 3.0474999e+00   1.1719640e+04
 3.0521801e+00   1.1670386e+04
 3.0568600e+00   1.1655788e+04
 3.0615399e+00   1.1629003e+04
 3.0662200e+00   1.1573674e+04
 3.0709000e+00   1.1560037e+04
 3.0755799e+00   1.1544569e+04
 3.0802600e+00   1.1503984e+04
 3.0849400e+00   1.1497141e+04
 3.0896201e+00   1.1453280e+04
 3.0943000e+00   1.1440238e+04
 3.0989799e+00   1.1396431e+04
 3.1036601e+00   1.1379083e+04
 3.1083400e+00   1.1366220e+04
 3.1130199e+00   1.1350279e+04
 3.1177001e+00   1.1334516e+04
 3.1223800e+00   1.1320860e+04
 3.1270599e+00   1.1274616e+04
 3.1317401e+00   1.1275530e+04
 3.1364200e+00   1.1256757e+04
 3.1410999e+00   1.1232071e+04
 3.1457801e+00   1.1207157e+04
 3.1504600e+00   1.1171847e+04
 3.1551399e+00   1.1166673e+04
 3.1598201e+00   1.1156029e+04
 3.1645000e+00   1.1124435e+04
 3.1691799e+00   1.1110082e+04
 3.1738601e+00   1.1094904e+04
 3.1785400e+00   1.1067813e+04
 3.1832199e+00   1.1061941e+04
 3.1879001e+00   1.1059485e+04
 3.1925800e+00   1.1035152e+04
 3.1972599e+00   1.1043142e+04
 3.2019401e+00   1.1010813e+04
 3.2066200e+00   1.1011169e+04
 3.2112999e+00   1.0984784e+04
 3.2159801e+00   1.0959226e+04
 3.2206600e+00   1.0935074e+04
 3.2253399e+00   1.0958907e+04
 3.2300200e+00   1.0916533e+04
 3.2347000e+00   1.0906868e+04
 3.2393799e+00   1.0880552e+04
 3.2440600e+00   1.0871121e+04
 3.2487400e+00   1.0875427e+04
 3.2534201e+00   1.0855500e+04
 3.2581000e+00   1.0841852e+04
 3.2627800e+00   1.0833458e+04
 3.2674601e+00   1.0811259e+04
 3.2721400e+00   1.0812068e+04
 3.2768199e+00   1.0798410e+04
 3.2815001e+00   1.0772652e+04
 3.2861800e+00   1.0772931e+04
 3.2908599e+00   1.0753184e+04
 3.2955401e+00   1.0777785e+04
 3.3002200e+00   1.0755964e+04
 3.3048999e+00   1.0747801e+04
 3.3095801e+00   1.0753908e+04
 3.3142600e+00   1.0774092e+04
 3.3189399e+00   1.0713630e+04
 3.3236201e+00   1.0748338e+04
 3.3283000e+00   1.0729084e+04
 3.3329799e+00   1.0709773e+04
 3.3376601e+00   1.0722625e+04
 3.3423400e+00   1.0724073e+04
 3.3470199e+00   1.0709035e+04
 3.3517001e+00   1.0724737e+04
 3.3563800e+00   1.0690684e+04
 3.3610599e+00   1.0739123e+04
 3.3657401e+00   1.0724482e+04
 3.3704200e+00   1.0689936e+04
 3.3750999e+00   1.0707216e+04
 3.3797801e+00   1.0694440e+04
 3.3844600e+00   1.0687526e+04
 3.3891399e+00   1.0703409e+04
 3.3938200e+00   1.0694894e+04
 3.3985000e+00   1.0727280e+04
 3.4031799e+00   1.0707786e+04
 3.4078600e+00   1.0686384e+04
 3.4125400e+00   1.0715529e+04
 3.4172201e+00   1.0703739e+04
 3.4219000e+00   1.0706761e+04
 3.4265800e+00   1.0733061e+04
 3.4312601e+00   1.0712758e+04
 3.4359400e+00   1.0740030e+04
 3.4406199e+00   1.0736721e+04
 3.4453001e+00   1.0730179e+04
 3.4499800e+00   1.0752754e+04
 3.4546599e+00   1.0757781e+04
 3.4593401e+00   1.0739180e+04
 3.4640200e+00   1.0758194e+04
 3.4686999e+00   1.0764566e+04
 3.4733801e+00   1.0727499e+04
 3.4780600e+00   1.0788137e+04
 3.4827399e+00   1.0775696e+04
 3.4874201e+00   1.0764271e+04
 3.4921000e+00   1.0750273e+04
 3.4967799e+00   1.0739264e+04
 3.5014601e+00   1.0769930e+04
 3.5061400e+00   1.0783195e+04
 3.5108199e+00   1.0730074e+04
 3.5155001e+00   1.0804770e+04
 3.5201800e+00   1.0773279e+04
 3.5248599e+00   1.0740839e+04
 3.5295401e+00   1.0785308e+04
 3.5342200e+00   1.0761388e+04
 3.5388999e+00   1.0802454e+04
 3.5435801e+00   1.0779924e+04
 3.5482600e+00   1.0774158e+04
 3.5529399e+00   1.0788434e+04
 3.5576200e+00   1.0811944e+04
 3.5623000e+00   1.0768006e+04
 3.5669799e+00   1.0854472e+04
 3.5716600e+00   1.0789313e+04
 3.5763400e+00   1.0834835e+04
 3.5810201e+00   1.0825395e+04
 3.5857000e+00   1.0835746e+04
 3.5903800e+00   1.0843508e+04
 3.5950601e+00   1.0913743e+04
 3.5997400e+00   1.0812124e+04
 3.6044199e+00   1.0900084e+04
 3.6091001e+00   1.0864836e+04
 3.6137800e+00   1.0830856e+04
 3.6184599e+00   1.0892127e+04
 3.6231401e+00   1.0868455e+04
 3.6278200e+00   1.0866612e+04
 3.6324999e+00   1.0930175e+04
 3.6371801e+00   1.0865922e+04
 3.6418600e+00   1.0923514e+04
 3.6465399e+00   1.0952702e+04
 3.6512201e+00   1.0892604e+04
 3.6559000e+00   1.1021400e+04
 3.6605799e+00   1.0948043e+04
 3.6652601e+00   1.0971241e+04
 3.6699400e+00   1.1024960e+04
 3.6746199e+00   1.0994207e+04
 3.6793001e+00   1.1009720e+04
 3.6839800e+00   1.1198665e+04
 3.6886599e+00   1.0961354e+04
 3.6933401e+00   1.1211806e+04
 3.6980200e+00   1.1032370e+04
 3.7026999e+00   1.1194742e+04
 3.7073801e+00   1.1177707e+04
 3.7120600e+00   1.1274663e+04
 3.7167399e+00   1.1139122e+04
 3.7214200e+00   1.1411224e+04
 3.7261000e+00   1.1221736e+04
 3.7307799e+00   1.1314909e+04
 3.7354600e+00   1.1377839e+04
 3.7401400e+00   1.1366364e+04
 3.7448201e+00   1.1536161e+04
 3.7495000e+00   1.1457029e+04
 3.7541800e+00   1.1524516e+04
 3.7588601e+00   1.1486891e+04
 3.7635400e+00   1.1615848e+04
 3.7682199e+00   1.1659304e+04
 3.7729001e+00   1.1839847e+04
 3.7775800e+00   1.1621462e+04
 3.7822599e+00   1.1952526e+04
 3.7869401e+00   1.1749404e+04
 3.7916200e+00   1.1975447e+04
 3.7962999e+00   1.2031426e+04
 3.8009801e+00   1.2242441e+04
 3.8056600e+00   1.1918636e+04
 3.8103399e+00   1.2487153e+04
 3.8150201e+00   1.1953729e+04
 3.8197000e+00   1.2693683e+04
 3.8243799e+00   1.2481501e+04
 3.8290601e+00   1.2799746e+04
 3.8337400e+00   1.2530209e+04
 3.8384199e+00   1.3181801e+04
 3.8431001e+00   1.2724488e+04
 3.8477800e+00   1.3333788e+04
 3.8524599e+00   1.3279751e+04
 3.8571401e+00   1.3689812e+04
 3.8618200e+00   1.3717867e+04
 3.8664999e+00   1.3699801e+04
 3.8711801e+00   1.4046413e+04
 3.8758600e+00   1.4373873e+04
 3.8805399e+00   1.4735058e+04
 3.8852201e+00   1.5410303e+04
 3.8899000e+00   1.5431457e+04
 3.8945799e+00   1.5955244e+04
 3.8992600e+00   1.6608455e+04
 3.9039400e+00   1.7690580e+04
 3.9086201e+00   1.8206384e+04
 3.9133000e+00   2.3173491e+04
 3.9179800e+00   2.2482167e+04
 3.9226601e+00   3.1242227e+04
 3.9273400e+00   3.1664587e+04
 3.9320199e+00   5.0815023e+04
 3.9367001e+00   5.0437127e+04
 3.9413800e+00   8.5202068e+04
 3.9460599e+00   7.2832889e+04
 3.9507401e+00   8.9037084e+04
 3.9554200e+00   8.0773392e+04
 3.9600999e+00   9.4887230e+04
 3.9647801e+00   9.5287525e+04
 3.9694600e+00   1.0310001e+05
 3.9741399e+00   1.2076604e+05
 3.9788201e+00   9.5290145e+04
 3.9835000e+00   1.0143196e+05
 3.9881799e+00   5.4155550e+04
 3.9928601e+00   8.0206825e+04
 3.9975400e+00   3.5028682e+04
 4.0022202e+00   4.7534222e+04
 4.0068998e+00   3.1787041e+04
 4.0115800e+00   3.1972140e+04
 4.0162601e+00   1.9903530e+04
 4.0209398e+00   2.0857367e+04
 4.0256200e+00   1.7253623e+04
 4.0303001e+00   1.7593664e+04
 4.0349798e+00   1.5135387e+04
 4.0396600e+00   1.5571505e+04
 4.0443401e+00   1.4697079e+04
 4.0490198e+00   1.3845196e+04
 4.0537000e+00   1.4158696e+04
 4.0583801e+00   1.3051897e+04
 4.0630598e+00   1.3588147e+04
 4.0677400e+00   1.2636375e+04
 4.0724201e+00   1.2810269e+04
 4.0770998e+00   1.2201498e+04
 4.0817800e+00   1.2409968e+04
 4.0864601e+00   1.2127092e+04
 4.0911398e+00   1.2162640e+04
 4.0958200e+00   1.1693476e+04
 4.1005001e+00   1.1633122e+04
 4.1051798e+00   1.1454315e+04
 4.1098599e+00   1.1114899e+04
 4.1145401e+00   1.1415003e+04
 4.1192198e+00   1.1061640e+04
 4.1238999e+00   1.0946486e+04
 4.1285801e+00   1.0780558e+04
 4.1332598e+00   1.0663429e+04
 4.1379399e+00   1.0496487e+04
 4.1426201e+00   1.0705434e+04
 4.1472998e+00   1.0137198e+04
 4.1519799e+00   1.0422734e+04
 4.1566601e+00   1.0091336e+04
 4.1613402e+00   1.0172192e+04
 4.1660199e+00   9.8521377e+03
 4.1707001e+00   1.0043472e+04
 4.1753802e+00   9.7080506e+03
 4.1800599e+00   9.9661127e+03
 4.1847401e+00   9.5469778e+03
 4.1894202e+00   9.7707581e+03
 4.1940999e+00   9.4698506e+03
 4.1987801e+00   9.5827574e+03
 4.2034602e+00   9.4710963e+03
 4.2081399e+00   9.4294214e+03
 4.2128201e+00   9.3620230e+03
 4.2175002e+00   9.3991967e+03
 4.2221799e+00   9.2186489e+03
 4.2268600e+00   9.1442622e+03
 4.2315402e+00   9.2531973e+03
 4.2362199e+00   8.9797987e+03
 4.2409000e+00   9.0903324e+03
 4.2455802e+00   8.9947930e+03
 4.2502599e+00   8.9022169e+03
 4.2549400e+00   8.8571475e+03
 4.2596202e+00   9.0589527e+03
 4.2642999e+00   8.8566397e+03
 4.2689800e+00   8.9999213e+03
 4.2736602e+00   8.8878668e+03
 4.2783399e+00   9.0134353e+03
 4.2830200e+00   8.8676056e+03
 4.2877002e+00   9.0289222e+03
 4.2923799e+00   8.9755089e+03
 4.2970600e+00   9.1854462e+03
 4.3017402e+00   9.0697821e+03
 4.3064198e+00   9.1881217e+03
 4.3111000e+00   9.0824774e+03
 4.3157802e+00   9.2089519e+03
 4.3204598e+00   9.2050962e+03
 4.3251400e+00   9.1656146e+03
 4.3298202e+00   9.2170944e+03
 4.3344998e+00   9.1951111e+03
 4.3391800e+00   9.1987001e+03
 4.3438601e+00   9.3015292e+03
 4.3485398e+00   9.2786686e+03
 4.3532200e+00   9.2633704e+03
 4.3579001e+00   9.2498413e+03
 4.3625798e+00   9.1122484e+03
 4.3672600e+00   9.0944620e+03
 4.3719401e+00   8.9968758e+03
 4.3766198e+00   8.9430518e+03
 4.3813000e+00   8.8557762e+03
 4.3859801e+00   8.7306867e+03
 4.3906598e+00   8.6067402e+03
 4.3953400e+00   8.5547544e+03
 4.4000201e+00   8.3963717e+03
 4.4046998e+00   8.3941550e+03
 4.4093800e+00   8.2365084e+03
 4.4140601e+00   8.1590963e+03
 4.4187398e+00   8.1289629e+03
 4.4234200e+00   8.0271509e+03
 4.4281001e+00   7.9475377e+03
 4.4327798e+00   7.9881767e+03
 4.4374599e+00   7.8624967e+03
 4.4421401e+00   7.8467221e+03
 4.4468198e+00   7.8230246e+03
 4.4514999e+00   7.7527916e+03
 4.4561801e+00   7.7535278e+03
 4.4608598e+00   7.7254359e+03
 4.4655399e+00   7.6870777e+03
 4.4702201e+00   7.6908292e+03
 4.4748998e+00   7.6703313e+03
 4.4795799e+00   7.6408460e+03
 4.4842601e+00   7.6496475e+03
 4.4889398e+00   7.5907735e+03
 4.4936199e+00   7.5704044e+03
 4.4983001e+00   7.5279030e+03
 4.5029802e+00   7.4405274e+03
 4.5076599e+00   7.3932326e+03
 4.5123401e+00   7.3526721e+03
 4.5170202e+00   7.2362532e+03
 4.5216999e+00   7.2376282e+03
 4.5263801e+00   7.1550301e+03
 4.5310602e+00   7.1049551e+03
 4.5357399e+00   7.1020505e+03
 4.5404201e+00   7.0381220e+03
 4.5451002e+00   7.0178412e+03
 4.5497799e+00   6.9995025e+03
 4.5544600e+00   6.9673135e+03
 4.5591402e+00   6.9507775e+03
 4.5638199e+00   6.9169780e+03
 4.5685000e+00   6.8858011e+03
 4.5731802e+00   6.8952637e+03
 4.5778599e+00   6.8703716e+03
 4.5825400e+00   6.8590174e+03
 4.5872202e+00   6.8548781e+03
 4.5918999e+00   6.8222060e+03
 4.5965800e+00   6.8138247e+03
 4.6012602e+00   6.7756034e+03
 4.6059399e+00   6.7855755e+03
 4.6106200e+00   6.7868402e+03
 4.6153002e+00   6.7609803e+03
 4.6199799e+00   6.7286303e+03
 4.6246600e+00   6.7362930e+03
 4.6293402e+00   6.7056021e+03
 4.6340199e+00   6.6875377e+03
 4.6387000e+00   6.6886443e+03
 4.6433802e+00   6.6487308e+03
 4.6480598e+00   6.6550491e+03
 4.6527400e+00   6.6398876e+03
 4.6574202e+00   6.6116227e+03
 4.6620998e+00   6.6484377e+03
 4.6667800e+00   6.6022890e+03
 4.6714602e+00   6.5906527e+03
 4.6761398e+00   6.5899955e+03
 4.6808200e+00   6.5762873e+03
 4.6855001e+00   6.5791444e+03
 4.6901798e+00   6.5840366e+03
 4.6948600e+00   6.5901014e+03
 4.6995401e+00   6.6030195e+03
 4.7042198e+00   6.6101689e+03
 4.7089000e+00   6.6299045e+03
 4.7135801e+00   6.6998171e+03
 4.7182598e+00   6.7377792e+03
 4.7229400e+00   6.8317756e+03
 4.7276201e+00   6.8832109e+03
 4.7322998e+00   6.9642507e+03
 4.7369800e+00   7.0473090e+03
 4.7416601e+00   7.1079226e+03
 4.7463398e+00   7.1765060e+03
 4.7510200e+00   7.2723523e+03
 4.7557001e+00   7.3187298e+03
 4.7603798e+00   7.4221527e+03
 4.7650599e+00   7.5422525e+03
 4.7697401e+00   7.6850187e+03
 4.7744198e+00   7.8647598e+03
 4.7790999e+00   8.0767594e+03
 4.7837801e+00   8.2797683e+03
 4.7884598e+00   8.5550909e+03
 4.7931399e+00   8.7776495e+03
 4.7978201e+00   9.0058302e+03
 4.8024998e+00   9.1981960e+03
 4.8071799e+00   9.3212430e+03
 4.8118601e+00   9.3687280e+03
 4.8165398e+00   9.3286898e+03
 4.8212199e+00   9.2473444e+03
 4.8259001e+00   9.0876937e+03
 4.8305802e+00   8.8884211e+03
 4.8352599e+00   8.6518781e+03
 4.8399401e+00   8.4243124e+03
 4.8446202e+00   8.1624633e+03
 4.8492999e+00   7.9334255e+03
 4.8539801e+00   7.7062780e+03
 4.8586602e+00   7.4996315e+03
 4.8633399e+00   7.3285813e+03
 4.8680201e+00   7.2130703e+03
 4.8727002e+00   7.1154081e+03
 4.8773799e+00   7.0777067e+03
 4.8820601e+00   7.1035264e+03
 4.8867402e+00   7.1327922e+03
 4.8914199e+00   7.2210098e+03
 4.8961000e+00   7.3828570e+03
 4.9007802e+00   7.5112122e+03
 4.9054599e+00   7.6814915e+03
 4.9101400e+00   7.8489454e+03
 4.9148202e+00   7.9829239e+03
 4.9194999e+00   8.1113594e+03
 4.9241800e+00   8.2137786e+03
 4.9288602e+00   8.3123409e+03
 4.9335399e+00   8.3438674e+03
 4.9382200e+00   8.3918985e+03
 4.9429002e+00   8.3979906e+03
 4.9475799e+00   8.4582412e+03
 4.9522600e+00   8.4293042e+03
 4.9569402e+00   8.4611979e+03
 4.9616199e+00   8.4415261e+03
 4.9663000e+00   8.4443921e+03
 4.9709802e+00   8.4303959e+03
 4.9756598e+00   8.4186047e+03
 4.9803400e+00   8.3945295e+03
 4.9850202e+00   8.3586395e+03
 4.9896998e+00   8.2850268e+03
 4.9943800e+00   8.2116460e+03
 4.9990602e+00   8.0867056e+03
 5.0037398e+00   7.9459956e+03
 5.0084200e+00   7.8013448e+03
 5.0131001e+00   7.6307479e+03
 5.0177798e+00   7.4568646e+03
 5.0224600e+00   7.2959585e+03
 5.0271401e+00   7.1258871e+03
 5.0318198e+00   6.9610872e+03
 5.0365000e+00   6.8491002e+03
 5.0411801e+00   6.7140373e+03
 5.0458598e+00   6.6416018e+03
 5.0505400e+00   6.5555325e+03
 5.0552201e+00   6.5318361e+03
 5.0598998e+00   6.4747223e+03
 5.0645800e+00   6.4813755e+03
 5.0692601e+00   6.5135074e+03
 5.0739398e+00   6.5184174e+03
 5.0786200e+00   6.6085548e+03
 5.0833001e+00   6.7614305e+03
 5.0879798e+00   6.9127203e+03
 5.0926600e+00   7.2915920e+03
 5.0973401e+00   7.5925859e+03
 5.1020198e+00   8.0314317e+03
 5.1066999e+00   9.2645159e+03
 5.1113801e+00   1.0205444e+04
 5.1160598e+00   1.2498617e+04
 5.1207399e+00   1.6806392e+04
 5.1254201e+00   2.0590625e+04
 5.1300998e+00   3.0126682e+04
 5.1347799e+00   3.8877496e+04
 5.1394601e+00   4.3242099e+04
 5.1441398e+00   5.0875207e+04
 5.1488199e+00   4.7050011e+04
 5.1535001e+00   4.1153102e+04
 5.1581802e+00   3.5760052e+04
 5.1628599e+00   2.5785512e+04
 5.1675401e+00   1.9095913e+04
 5.1722202e+00   1.4607203e+04
 5.1768999e+00   1.0769281e+04
 5.1815801e+00   9.2802913e+03
 5.1862602e+00   7.9522427e+03
 5.1909399e+00   7.2299049e+03
 5.1956201e+00   6.9823373e+03
 5.2003002e+00   6.6526584e+03
 5.2049799e+00   6.4885984e+03
 5.2096601e+00   6.3822526e+03
 5.2143402e+00   6.2798831e+03
 5.2190199e+00   6.2043482e+03
 5.2237000e+00   6.1363496e+03
 5.2283802e+00   6.1044489e+03
 5.2330599e+00   6.0502378e+03
 5.2377400e+00   6.0342013e+03
 5.2424202e+00   5.9907470e+03
 5.2470999e+00   5.9769346e+03
 5.2517800e+00   5.9660764e+03
 5.2564602e+00   5.9412916e+03
 5.2611399e+00   5.9313630e+03
 5.2658200e+00   5.9160695e+03
 5.2705002e+00   5.8910441e+03
 5.2751799e+00   5.8935118e+03
 5.2798600e+00   5.8864799e+03
 5.2845402e+00   5.8616996e+03
 5.2892199e+00   5.8913433e+03
 5.2939000e+00   5.8616119e+03
 5.2985802e+00   5.8470190e+03
 5.3032598e+00   5.8602315e+03
 5.3079400e+00   5.8576402e+03
 5.3126202e+00   5.8532762e+03
 5.3172998e+00   5.8448459e+03
 5.3219800e+00   5.8380717e+03
 5.3266602e+00   5.8564392e+03
 5.3313398e+00   5.8284591e+03
 5.3360200e+00   5.8124440e+03
 5.3407001e+00   5.8595109e+03
 5.3453798e+00   5.8218723e+03
 5.3500600e+00   5.8406021e+03
 5.3547401e+00   5.8407990e+03
 5.3594198e+00   5.8160369e+03
 5.3641000e+00   5.8266404e+03
 5.3687801e+00   5.8295722e+03
 5.3734598e+00   5.8183441e+03
 5.3781400e+00   5.8633256e+03
 5.3828201e+00   5.8300180e+03
 5.3874998e+00   5.8172848e+03
 5.3921800e+00   5.8647520e+03
 5.3968601e+00   5.8482185e+03
 5.4015398e+00   5.8614285e+03
 5.4062200e+00   5.8928328e+03
 5.4109001e+00   5.8885570e+03
 5.4155798e+00   5.9049846e+03
 5.4202600e+00   5.9130553e+03
 5.4249401e+00   5.9132874e+03
 5.4296198e+00   5.9655120e+03
 5.4342999e+00   5.9732738e+03
 5.4389801e+00   5.9881057e+03
 5.4436598e+00   6.0235225e+03
 5.4483399e+00   6.0347303e+03
 5.4530201e+00   6.0874204e+03
 5.4576998e+00   6.1183214e+03
 5.4623799e+00   6.1411527e+03
 5.4670601e+00   6.2378277e+03
 5.4717398e+00   6.2757478e+03
 5.4764199e+00   6.3608412e+03
 5.4811001e+00   6.4779566e+03
 5.4857798e+00   6.5653454e+03
 5.4904599e+00   6.7230785e+03
 5.4951401e+00   6.8807790e+03
 5.4998202e+00   7.0625010e+03
 5.5044999e+00   7.3736071e+03
 5.5091801e+00   7.6574615e+03
 5.5138602e+00   8.0531240e+03
 5.5185399e+00   8.5559047e+03
 5.5232201e+00   9.0893401e+03
 5.5279002e+00   9.7567809e+03
 5.5325799e+00   1.0556215e+04
 5.5372601e+00   1.1324562e+04
 5.5419402e+00   1.2275851e+04
 5.5466199e+00   1.3059315e+04
 5.5513000e+00   1.3817670e+04
 5.5559802e+00   1.4420516e+04
 5.5606599e+00   1.4769065e+04
 5.5653400e+00   1.4929432e+04
 5.5700202e+00   1.4860210e+04
 5.5746999e+00   1.4577237e+04
 5.5793800e+00   1.4141048e+04
 5.5840602e+00   1.3664340e+04
 5.5887399e+00   1.3039838e+04
 5.5934200e+00   1.2522757e+04
 5.5981002e+00   1.2159784e+04
 5.6027799e+00   1.1823623e+04
 5.6074600e+00   1.0899308e+04
 5.6121402e+00   1.0340722e+04
 5.6168199e+00   9.8125800e+03
 5.6215000e+00   9.3742890e+03
 5.6261802e+00   9.0035457e+03
 5.6308599e+00   8.6981991e+03
 5.6355400e+00   8.3969818e+03
 5.6402202e+00   8.1049677e+03
 5.6448998e+00   7.9061256e+03
 5.6495800e+00   7.6467979e+03
 5.6542602e+00   7.4336948e+03
 5.6589398e+00   7.2619069e+03
 5.6636200e+00   7.0583934e+03
 5.6683002e+00   6.9267022e+03
 5.6729798e+00   6.7743824e+03
 5.6776600e+00   6.6108930e+03
 5.6823401e+00   6.5551607e+03
 5.6870198e+00   6.4284741e+03
 5.6917000e+00   6.3395115e+03
 5.6963801e+00   6.2981410e+03
 5.7010598e+00   6.2000650e+03
 5.7057400e+00   6.1635187e+03
 5.7104201e+00   6.1280457e+03
 5.7150998e+00   6.0908038e+03
 5.7197800e+00   6.0656121e+03
 5.7244601e+00   6.0350341e+03
 5.7291398e+00   5.9931233e+03
 5.7338200e+00   6.0245869e+03
 5.7385001e+00   6.0066245e+03
 5.7431798e+00   6.0014309e+03
 5.7478600e+00   6.0063741e+03
 5.7525401e+00   5.9830734e+03
 5.7572198e+00   6.0084875e+03
 5.7618999e+00   6.0034131e+03
 5.7665801e+00   5.9686378e+03
 5.7712598e+00   5.9942985e+03
 5.7759399e+00   5.9555039e+03
 5.7806201e+00   5.9566697e+03
 5.7852998e+00   5.9443983e+03
 5.7899799e+00   5.9038009e+03
 5.7946601e+00   5.9074818e+03
 5.7993398e+00   5.9122986e+03
 5.8040199e+00   5.8736244e+03
 5.8087001e+00   5.9145516e+03
 5.8133798e+00   5.8786471e+03
 5.8180599e+00   5.8556529e+03
 5.8227401e+00   5.9034082e+03
 5.8274202e+00   5.8612061e+03
 5.8320999e+00   5.8718524e+03
 5.8367801e+00   5.8966495e+03
 5.8414602e+00   5.8761949e+03
 5.8461399e+00   5.9345034e+03
 5.8508201e+00   5.9314304e+03
 5.8555002e+00   5.9219108e+03
 5.8601799e+00   5.9965633e+03
 5.8648601e+00   5.9893203e+03
 5.8695402e+00   6.0054184e+03
 5.8742199e+00   6.0572086e+03
 5.8789001e+00   6.0652318e+03
 5.8835802e+00   6.1455119e+03
 5.8882599e+00   6.1930059e+03
 5.8929400e+00   6.2559020e+03
 5.8976202e+00   6.3975412e+03
 5.9022999e+00   6.5445424e+03
 5.9069800e+00   6.7888906e+03
 5.9116602e+00   7.1685757e+03
 5.9163399e+00   7.6882647e+03
 5.9210200e+00   8.4813394e+03
 5.9257002e+00   9.6423698e+03
 5.9303799e+00   1.1079223e+04
 5.9350600e+00   1.2415016e+04
 5.9397402e+00   1.3115767e+04
 5.9444199e+00   1.3189214e+04
 5.9491000e+00   1.2807365e+04
 5.9537802e+00   1.1845597e+04
 5.9584599e+00   1.0651241e+04
 5.9631400e+00   9.4421097e+03
 5.9678202e+00   8.5904175e+03
 5.9724998e+00   7.9546128e+03
 5.9771800e+00   7.6061056e+03
 5.9818602e+00   7.3866634e+03
 5.9865398e+00   7.2742445e+03
 5.9912200e+00   7.1599002e+03
 5.9959002e+00   7.0599521e+03
 6.0005798e+00   7.0115697e+03
 6.0052600e+00   6.9052849e+03
 6.0099401e+00   6.8558521e+03
 6.0146198e+00   6.7677605e+03
 6.0193000e+00   6.6573758e+03
 6.0239801e+00   6.6273542e+03
 6.0286598e+00   6.5160176e+03
 6.0333400e+00   6.4473156e+03
 6.0380201e+00   6.3845889e+03
 6.0426998e+00   6.2912917e+03
 6.0473800e+00   6.2389013e+03
 6.0520601e+00   6.2023655e+03
 6.0567398e+00   6.0951077e+03
 6.0614200e+00   6.0961052e+03
 6.0661001e+00   6.0398874e+03
 6.0707798e+00   5.9960881e+03
 6.0754600e+00   5.9906625e+03
 6.0801401e+00   5.9498756e+03
 6.0848198e+00   5.9054034e+03
 6.0895000e+00   5.9218966e+03
 6.0941801e+00   5.8654029e+03
 6.0988598e+00   5.8732621e+03
 6.1035399e+00   5.8671995e+03
 6.1082201e+00   5.8416090e+03
 6.1128998e+00   5.8585513e+03
 6.1175799e+00   5.8246859e+03
 6.1222601e+00   5.8117580e+03
 6.1269398e+00   5.8193218e+03
 6.1316199e+00   5.8026449e+03
 6.1363001e+00   5.8049879e+03
 6.1409798e+00   5.8110249e+03
 6.1456599e+00   5.7902408e+03
 6.1503401e+00   5.8031865e+03
 6.1550202e+00   5.7872839e+03
 6.1596999e+00   5.7926454e+03
 6.1643801e+00   5.7981916e+03
 6.1690602e+00   5.7864944e+03
 6.1737399e+00   5.7861237e+03
 6.1784201e+00   5.8183064e+03
 6.1831002e+00   5.7812626e+03
 6.1877799e+00   5.8096966e+03
 6.1924601e+00   5.8016387e+03
 6.1971402e+00   5.7966164e+03
 6.2018199e+00   5.8224696e+03
 6.2065001e+00   5.8074904e+03
 6.2111802e+00   5.7954852e+03
 6.2158599e+00   5.8186215e+03
 6.2205400e+00   5.7848763e+03
 6.2252202e+00   5.8147301e+03
 6.2298999e+00   5.8229000e+03
 6.2345800e+00   5.7937596e+03
 6.2392602e+00   5.8297196e+03
 6.2439399e+00   5.8168170e+03
 6.2486200e+00   5.8218801e+03
 6.2533002e+00   5.8328973e+03
 6.2579799e+00   5.8312322e+03
 6.2626600e+00   5.8310593e+03
 6.2673402e+00   5.8279650e+03
 6.2720199e+00   5.8206219e+03
 6.2767000e+00   5.8633366e+03
 6.2813802e+00   5.8421684e+03
 6.2860599e+00   5.8389928e+03
 6.2907400e+00   5.8428673e+03
 6.2954202e+00   5.8584569e+03
 6.3000998e+00   5.8398830e+03
 6.3047800e+00   5.8751794e+03
 6.3094602e+00   5.8457672e+03
 6.3141398e+00   5.8782818e+03
 6.3188200e+00   5.8868534e+03
 6.3235002e+00   5.8706224e+03
 6.3281798e+00   5.9070221e+03
 6.3328600e+00   5.8987282e+03
 6.3375401e+00   5.9226000e+03
 6.3422198e+00   5.9090733e+03
 6.3469000e+00   5.9108113e+03
 6.3515801e+00   5.9180678e+03
 6.3562598e+00   5.9389188e+03
 6.3609400e+00   5.9094451e+03
 6.3656201e+00   5.9365799e+03
 6.3702998e+00   5.9144401e+03
 6.3749800e+00   5.9466137e+03
 6.3796601e+00   5.9356085e+03
 6.3843398e+00   5.9614074e+03
 6.3890200e+00   5.9438416e+03
 6.3937001e+00   5.9647944e+03
 6.3983798e+00   5.9423457e+03
 6.4030600e+00   5.9902762e+03
 6.4077401e+00   5.9776866e+03
 6.4124198e+00   5.9950459e+03
 6.4171000e+00   6.0191606e+03
 6.4217801e+00   6.0141020e+03
 6.4264598e+00   6.0256641e+03
 6.4311399e+00   6.0286124e+03
 6.4358201e+00   6.0441188e+03
 6.4404998e+00   6.0498865e+03
 6.4451799e+00   6.0932533e+03
 6.4498601e+00   6.0484878e+03
 6.4545398e+00   6.0940173e+03
 6.4592199e+00   6.0677056e+03
 6.4639001e+00   6.1238965e+03
 6.4685798e+00   6.1134928e+03
 6.4732599e+00   6.1423656e+03
 6.4779401e+00   6.1129448e+03
 6.4826198e+00   6.1689173e+03
 6.4872999e+00   6.1301271e+03
 6.4919801e+00   6.1978954e+03
 6.4966602e+00   6.1882636e+03
 6.5013399e+00   6.1952752e+03
 6.5060201e+00   6.2402846e+03
 6.5107002e+00   6.2236751e+03
 6.5153799e+00   6.2628886e+03
 6.5200601e+00   6.2619261e+03
 6.5247402e+00   6.3283171e+03
 6.5294199e+00   6.2635881e+03
 6.5341001e+00   6.3484743e+03
 6.5387802e+00   6.2929294e+03
 6.5434599e+00   6.3594219e+03
 6.5481400e+00   6.3287851e+03
 6.5528202e+00   6.4222592e+03
 6.5574999e+00   6.3638594e+03
 6.5621800e+00   6.4096164e+03
 6.5668602e+00   6.3755165e+03
 6.5715399e+00   6.4890397e+03
 6.5762200e+00   6.4084001e+03
 6.5809002e+00   6.5272833e+03
 6.5855799e+00   6.4612330e+03
 6.5902600e+00   6.5226249e+03
 6.5949402e+00   6.5288258e+03
 6.5996199e+00   6.5573184e+03
 6.6043000e+00   6.6125638e+03
 6.6089802e+00   6.5928716e+03
 6.6136599e+00   6.6259316e+03
 6.6183400e+00   6.6441290e+03
 6.6230202e+00   6.6708335e+03
 6.6276999e+00   6.6492835e+03
 6.6323800e+00   6.7810924e+03
 6.6370602e+00   6.7046670e+03
 6.6417398e+00   6.7880980e+03
 6.6464200e+00   6.7754119e+03
 6.6511002e+00   6.8553566e+03
 6.6557798e+00   6.8328430e+03
 6.6604600e+00   6.9568061e+03
 6.6651402e+00   6.8525512e+03
 6.6698198e+00   6.9519762e+03
 6.6745000e+00   6.8957605e+03
 6.6791801e+00   7.0037686e+03
 6.6838598e+00   7.0091874e+03
 6.6885400e+00   7.0187136e+03
 6.6932201e+00   7.0769315e+03
 6.6978998e+00   7.0526707e+03
 6.7025800e+00   7.1174537e+03
 6.7072601e+00   7.1182321e+03
 6.7119398e+00   7.1505804e+03
 6.7166200e+00   7.1474301e+03
 6.7213001e+00   7.2784646e+03
 6.7259798e+00   7.1536288e+03
 6.7306600e+00   7.3135666e+03
 6.7353401e+00   7.2973454e+03
 6.7400198e+00   7.4241670e+03
 6.7447000e+00   7.3370774e+03
 6.7493801e+00   7.4433869e+03
 6.7540598e+00   7.3813471e+03
 6.7587399e+00   7.5824754e+03
 6.7634201e+00   7.5117239e+03
 6.7680998e+00   7.5887687e+03
 6.7727799e+00   7.6949099e+03
 6.7774601e+00   7.6195939e+03
 6.7821398e+00   7.7696449e+03
 6.7868199e+00   7.7787702e+03
 6.7915001e+00   7.8980767e+03
 6.7961798e+00   7.8655485e+03
 6.8008599e+00   8.0299901e+03
 6.8055401e+00   7.9456121e+03
 6.8102198e+00   8.1951389e+03
 6.8148999e+00   8.2235408e+03
 6.8195801e+00   8.4728146e+03
 6.8242602e+00   8.4469112e+03
 6.8289399e+00   8.8679028e+03
 6.8336201e+00   8.8381659e+03
 6.8383002e+00   9.4824495e+03
 6.8429799e+00   1.0392294e+04
 6.8476601e+00   1.2241454e+04
 6.8523402e+00   1.4278645e+04
 6.8570199e+00   1.5628518e+04
 6.8617001e+00   2.6636683e+04
 6.8663802e+00   2.7626652e+04
 6.8710599e+00   3.6920187e+04
 6.8757401e+00   4.0087399e+04
 6.8804202e+00   3.0340703e+04
 6.8850999e+00   3.4908624e+04
 6.8897800e+00   2.3314943e+04
 6.8944602e+00   2.1697717e+04
 6.8991399e+00   2.1360570e+04
 6.9038200e+00   1.3431139e+04
 6.9085002e+00   1.1909970e+04
 6.9131799e+00   1.0901066e+04
 6.9178600e+00   1.0459597e+04
 6.9225402e+00   1.0035732e+04
 6.9272199e+00   1.0070448e+04
 6.9319000e+00   9.7232504e+03
 6.9365802e+00   9.6024487e+03
 6.9412599e+00   9.4567867e+03
 6.9459400e+00   9.3695162e+03
 6.9506202e+00   9.5212730e+03
 6.9552999e+00   9.3651535e+03
 6.9599800e+00   9.4291553e+03
 6.9646602e+00   9.1890321e+03
 6.9693398e+00   9.1596932e+03
 6.9740200e+00   9.1613982e+03
 6.9787002e+00   9.2786501e+03
 6.9833798e+00   9.0496890e+03
 6.9880600e+00   9.2361056e+03
 6.9927402e+00   8.9661313e+03
 6.9974198e+00   9.0963568e+03
 7.0021000e+00   8.9242450e+03
 7.0067801e+00   9.0927918e+03
 7.0114598e+00   8.9421420e+03
 7.0161400e+00   8.9240305e+03
 7.0208201e+00   8.7993366e+03
 7.0254998e+00   8.7778547e+03
 7.0301800e+00   8.6960856e+03
 7.0348601e+00   8.6401160e+03
 7.0395398e+00   8.5967943e+03
 7.0442200e+00   8.3888685e+03
 7.0489001e+00   8.3976638e+03
 7.0535798e+00   8.2335865e+03
 7.0582600e+00   8.2321271e+03
 7.0629401e+00   8.1637058e+03
 7.0676198e+00   8.0823232e+03
 7.0723000e+00   7.9316318e+03
 7.0769801e+00   7.8609933e+03
 7.0816598e+00   7.6871282e+03
 7.0863400e+00   7.7552916e+03
 7.0910201e+00   7.5050712e+03
 7.0956998e+00   7.5300214e+03
 7.1003799e+00   7.4086823e+03
 7.1050601e+00   7.3440908e+03
 7.1097398e+00   7.2690275e+03
 7.1144199e+00   7.2806188e+03
 7.1191001e+00   7.2328910e+03
 7.1237798e+00   7.2122626e+03
 7.1284599e+00   7.1455744e+03
 7.1331401e+00   7.0961853e+03
 7.1378198e+00   7.1027880e+03
 7.1424999e+00   7.0666506e+03
 7.1471801e+00   7.0648967e+03
 7.1518602e+00   7.0251430e+03
 7.1565399e+00   7.0140691e+03
 7.1612201e+00   6.9812732e+03
 7.1659002e+00   6.9858842e+03
 7.1705799e+00   6.9001110e+03
 7.1752601e+00   6.9964164e+03
 7.1799402e+00   6.8760278e+03
 7.1846199e+00   6.9329296e+03
 7.1893001e+00   6.8891415e+03
 7.1939802e+00   6.9091919e+03
 7.1986599e+00   6.8518229e+03
 7.2033401e+00   6.8613962e+03
 7.2080202e+00   6.8349667e+03
 7.2126999e+00   6.8542798e+03
 7.2173800e+00   6.8078189e+03
 7.2220602e+00   6.8204069e+03
 7.2267399e+00   6.8194781e+03
 7.2314200e+00   6.7987599e+03
 7.2361002e+00   6.8180148e+03
 7.2407799e+00   6.7843228e+03
 7.2454600e+00   6.7965916e+03
 7.2501402e+00   6.8135425e+03
 7.2548199e+00   6.8259344e+03
 7.2595000e+00   6.7774075e+03
 7.2641802e+00   6.8521841e+03
 7.2688599e+00   6.7742394e+03
 7.2735400e+00   6.8361065e+03
 7.2782202e+00   6.7771963e+03
 7.2828999e+00   6.8204510e+03
 7.2875800e+00   6.7829380e+03
 7.2922602e+00   6.7766336e+03
 7.2969398e+00   6.7444417e+03
 7.3016200e+00   6.7776035e+03
 7.3063002e+00   6.7560867e+03
 7.3109798e+00   6.7666322e+03
 7.3156600e+00   6.7746320e+03
 7.3203402e+00   6.7792349e+03
 7.3250198e+00   6.7933955e+03
 7.3297000e+00   6.7917799e+03
 7.3343801e+00   6.8055728e+03
 7.3390598e+00   6.8180494e+03
 7.3437400e+00   6.8377593e+03
 7.3484201e+00   6.8377554e+03
 7.3530998e+00   6.8691520e+03
 7.3577800e+00   6.8489143e+03
 7.3624601e+00   6.8925775e+03
 7.3671398e+00   6.8613235e+03
 7.3718200e+00   6.8992601e+03
 7.3765001e+00   6.8977724e+03
 7.3811798e+00   6.9014262e+03
 7.3858600e+00   6.8973512e+03
 7.3905401e+00   6.8947068e+03
 7.3952198e+00   6.9040573e+03
 7.3999000e+00   6.9101330e+03
 7.4045801e+00   6.9004470e+03
 7.4092598e+00   6.9006716e+03
 7.4139400e+00   6.9266005e+03
 7.4186201e+00   6.9088106e+03
 7.4232998e+00   6.9263881e+03
 7.4279799e+00   6.9418129e+03
 7.4326601e+00   6.9582381e+03
 7.4373398e+00   6.9666574e+03
 7.4420199e+00   6.9899223e+03
 7.4467001e+00   6.9862464e+03
 7.4513798e+00   7.0192220e+03
 7.4560599e+00   7.0377656e+03
 7.4607401e+00   7.0396991e+03
 7.4654198e+00   7.0778648e+03
 7.4700999e+00   7.0779105e+03
 7.4747801e+00   7.1261562e+03
 7.4794598e+00   7.1292915e+03
 7.4841399e+00   7.1666542e+03
 7.4888201e+00   7.1811897e+03
 7.4935002e+00   7.2240462e+03
 7.4981799e+00   7.2328204e+03
 7.5028601e+00   7.2863691e+03
 7.5075402e+00   7.3130296e+03
 7.5122199e+00   7.3726532e+03
 7.5169001e+00   7.4049298e+03
 7.5215802e+00   7.4444182e+03
 7.5262599e+00   7.4995204e+03
 7.5309401e+00   7.5206310e+03
 7.5356202e+00   7.5717134e+03
 7.5402999e+00   7.6262057e+03
 7.5449800e+00   7.6537267e+03
 7.5496602e+00   7.6725989e+03
 7.5543399e+00   7.7112916e+03
 7.5590200e+00   7.7097757e+03
 7.5637002e+00   7.7554430e+03
 7.5683799e+00   7.7387432e+03
 7.5730600e+00   7.7714308e+03
 7.5777402e+00   7.7516164e+03
 7.5824199e+00   7.7394964e+03
 7.5871000e+00   7.7174932e+03
 7.5917802e+00   7.7187268e+03
 7.5964599e+00   7.6645191e+03
 7.6011400e+00   7.6243334e+03
 7.6058202e+00   7.5436965e+03
 7.6104999e+00   7.4604132e+03
 7.6151800e+00   7.3760651e+03
 7.6198602e+00   7.2404438e+03
 7.6245399e+00   7.1658783e+03
 7.6292200e+00   7.0162827e+03
 7.6339002e+00   6.9548818e+03
 7.6385798e+00   6.8172505e+03
 7.6432600e+00   6.7737087e+03
 7.6479402e+00   6.6737471e+03
 7.6526198e+00   6.6478114e+03
 7.6573000e+00   6.5494435e+03
 7.6619802e+00   6.5423512e+03
 7.6666598e+00   6.4753143e+03
 7.6713400e+00   6.4879707e+03
 7.6760201e+00   6.4231317e+03
 7.6806998e+00   6.4534297e+03
 7.6853800e+00   6.3920290e+03
 7.6900601e+00   6.4037032e+03
 7.6947398e+00   6.3737186e+03
 7.6994200e+00   6.3713002e+03
 7.7041001e+00   6.3791829e+03
 7.7087798e+00   6.3605885e+03
 7.7134600e+00   6.3620609e+03
 7.7181401e+00   6.3329270e+03
 7.7228198e+00   6.3629474e+03
 7.7275000e+00   6.3272671e+03
 7.7321801e+00   6.3429928e+03
 7.7368598e+00   6.3077047e+03
 7.7415400e+00   6.3655780e+03
 7.7462201e+00   6.3066903e+03
 7.7508998e+00   6.3698158e+03
 7.7555799e+00   6.3033232e+03
 7.7602601e+00   6.3746840e+03
 7.7649398e+00   6.2941536e+03
 7.7696199e+00   6.3610833e+03
 7.7743001e+00   6.3331703e+03
 7.7789798e+00   6.3491651e+03
 7.7836599e+00   6.3556079e+03
 7.7883401e+00   6.3435727e+03
 7.7930198e+00   6.3624244e+03
 7.7976999e+00   6.3411686e+03
 7.8023801e+00   6.3744314e+03
 7.8070598e+00   6.3632462e+03
 7.8117399e+00   6.3808183e+03
 7.8164201e+00   6.3373609e+03
 7.8211002e+00   6.4204256e+03
 7.8257799e+00   6.3348462e+03
 7.8304601e+00   6.4467387e+03
 7.8351402e+00   6.3874008e+03
 7.8398199e+00   6.4637685e+03
 7.8445001e+00   6.3714572e+03
 7.8491802e+00   6.4705691e+03
 7.8538599e+00   6.4009907e+03
 7.8585401e+00   6.5525085e+03
 7.8632202e+00   6.4430648e+03
 7.8678999e+00   6.5076340e+03
 7.8725801e+00   6.5204737e+03
 7.8772602e+00   6.5462896e+03
 7.8819399e+00   6.5950647e+03
 7.8866200e+00   6.6561103e+03
 7.8913002e+00   6.7156976e+03
 7.8959799e+00   6.6118895e+03
 7.9006600e+00   7.0969906e+03
 7.9053402e+00   6.7799368e+03
 7.9100199e+00   8.1942027e+03
 7.9147000e+00   7.7506609e+03
 7.9193802e+00   9.2158851e+03
 7.9240599e+00   8.8688604e+03
 7.9287400e+00   1.4585058e+04
 7.9334202e+00   1.0846156e+04
 7.9380999e+00   2.7240368e+04
 7.9427800e+00   1.6797880e+04
 7.9474602e+00   2.5264144e+04
 7.9521399e+00   1.5822818e+04
 7.9568200e+00   1.7131526e+04
 7.9615002e+00   1.2724831e+04
 7.9661798e+00   9.0051272e+03
 7.9708600e+00   8.3133651e+03
 7.9755402e+00   7.2206570e+03
 7.9802198e+00   7.1848354e+03
 7.9849000e+00   6.7772088e+03
 7.9895802e+00   6.8194232e+03
 7.9942598e+00   6.5364324e+03
 7.9989400e+00   6.5431942e+03
 8.0036201e+00   6.3793626e+03
 8.0082998e+00   6.4260905e+03
 8.0129805e+00   6.3203777e+03
 8.0176601e+00   6.4290486e+03
 8.0223398e+00   6.2520754e+03
 8.0270205e+00   6.3145532e+03
 8.0317001e+00   6.1824843e+03
 8.0363798e+00   6.2873712e+03
 8.0410604e+00   6.2300366e+03
 8.0457401e+00   6.2369031e+03
 8.0504198e+00   6.1960137e+03
 8.0551004e+00   6.1811345e+03
 8.0597801e+00   6.2090390e+03
 8.0644598e+00   6.1811339e+03
 8.0691404e+00   6.2968905e+03
 8.0738201e+00   6.2310114e+03
 8.0784998e+00   6.3083504e+03
 8.0831804e+00   6.2803937e+03
 8.0878601e+00   6.4022044e+03
 8.0925398e+00   6.3422058e+03
 8.0972204e+00   6.4929666e+03
 8.1019001e+00   6.4425518e+03
 8.1065798e+00   6.5359270e+03
 8.1112604e+00   6.4771080e+03
 8.1159401e+00   6.5674174e+03
 8.1206198e+00   6.5249408e+03
 8.1253004e+00   6.5524357e+03
 8.1299801e+00   6.5570056e+03
 8.1346598e+00   6.5316351e+03
 8.1393404e+00   6.5392429e+03
 8.1440201e+00   6.5212068e+03
 8.1486998e+00   6.5697812e+03
 8.1533804e+00   6.5149475e+03
 8.1580601e+00   6.5977469e+03
 8.1627398e+00   6.5511201e+03
 8.1674204e+00   6.6344408e+03
 8.1721001e+00   6.6133726e+03
 8.1767797e+00   6.7150644e+03
 8.1814604e+00   6.7175362e+03
 8.1861401e+00   6.8313514e+03
 8.1908197e+00   6.8310646e+03
 8.1955004e+00   6.9513290e+03
 8.2001801e+00   7.0152745e+03
 8.2048597e+00   7.1295015e+03
 8.2095404e+00   7.1900319e+03
 8.2142200e+00   7.2928886e+03
 8.2188997e+00   7.3837683e+03
 8.2235804e+00   7.4410009e+03
 8.2282600e+00   7.5337840e+03
 8.2329397e+00   7.5540430e+03
 8.2376204e+00   7.6014132e+03
 8.2423000e+00   7.5914463e+03
 8.2469797e+00   7.5967584e+03
 8.2516603e+00   7.5134505e+03
 8.2563400e+00   7.5049473e+03
 8.2610197e+00   7.4008259e+03
 8.2657003e+00   7.3314272e+03
 8.2703800e+00   7.2253602e+03
 8.2750597e+00   7.1485743e+03
 8.2797403e+00   7.0465159e+03
 8.2844200e+00   6.9420231e+03
 8.2890997e+00   6.8181251e+03
 8.2937803e+00   6.7083088e+03
 8.2984600e+00   6.6290875e+03
 8.3031397e+00   6.5000496e+03
 8.3078203e+00   6.4050420e+03
 8.3125000e+00   6.2959184e+03
 8.3171797e+00   6.2129052e+03
 8.3218603e+00   6.0947416e+03
 8.3265400e+00   6.0360820e+03
 8.3312197e+00   5.9431304e+03
 8.3359003e+00   5.8900724e+03
 8.3405800e+00   5.8188147e+03
 8.3452597e+00   5.7902201e+03
 8.3499403e+00   5.7546707e+03
 8.3546200e+00   5.7746391e+03
 8.3592997e+00   5.7522634e+03
 8.3639803e+00   5.7798703e+03
 8.3686600e+00   5.8627873e+03
 8.3733397e+00   6.0208299e+03
 8.3780203e+00   6.2832837e+03
 8.3827000e+00   6.7669397e+03
 8.3873796e+00   7.4099507e+03
 8.3920603e+00   8.3227591e+03
 8.3967400e+00   9.3651830e+03
 8.4014196e+00   1.0166624e+04
 8.4061003e+00   1.0920407e+04
 8.4107800e+00   1.0747929e+04
 8.4154596e+00   1.0138476e+04
 8.4201403e+00   9.4381419e+03
 8.4248199e+00   8.4089124e+03
 8.4294996e+00   7.5709108e+03
 8.4341803e+00   6.9509165e+03
 8.4388599e+00   6.5608067e+03
 8.4435396e+00   6.3680960e+03
 8.4482203e+00   6.2011158e+03
 8.4528999e+00   6.1813604e+03
 8.4575796e+00   6.1637315e+03
 8.4622602e+00   6.1700260e+03
 8.4669399e+00   6.1955693e+03
 8.4716196e+00   6.2193778e+03
 8.4763002e+00   6.2495487e+03
 8.4809799e+00   6.2845856e+03
 8.4856596e+00   6.3174650e+03
 8.4903402e+00   6.3292684e+03
 8.4950199e+00   6.3729365e+03
 8.4996996e+00   6.3851870e+03
 8.5043802e+00   6.4016266e+03
 8.5090599e+00   6.3851569e+03
 8.5137396e+00   6.4177546e+03
 8.5184202e+00   6.4029973e+03
 8.5230999e+00   6.4341537e+03
 8.5277796e+00   6.4282915e+03
 8.5324602e+00   6.4445465e+03
 8.5371399e+00   6.4399286e+03
 8.5418196e+00   6.4356988e+03
 8.5465002e+00   6.4278596e+03
 8.5511799e+00   6.4163674e+03
 8.5558596e+00   6.4165516e+03
 8.5605402e+00   6.3709600e+03
 8.5652199e+00   6.3731516e+03
 8.5698996e+00   6.3087388e+03
 8.5745802e+00   6.2951113e+03
 8.5792599e+00   6.2281879e+03
 8.5839396e+00   6.2142016e+03
 8.5886202e+00   6.1566011e+03
 8.5932999e+00   6.1412423e+03
 8.5979795e+00   6.0637129e+03
 8.6026602e+00   6.0289578e+03
 8.6073399e+00   5.9761336e+03
 8.6120195e+00   5.9447465e+03
 8.6167002e+00   5.9195611e+03
 8.6213799e+00   5.8519631e+03
 8.6260595e+00   5.8302597e+03
 8.6307402e+00   5.7780970e+03
 8.6354198e+00   5.7649496e+03
 8.6400995e+00   5.7353267e+03
 8.6447802e+00   5.7176366e+03
 8.6494598e+00   5.6824185e+03
 8.6541405e+00   5.6789419e+03
 8.6588202e+00   5.6563902e+03
 8.6634998e+00   5.6461606e+03
 8.6681805e+00   5.6226023e+03
 8.6728601e+00   5.6141428e+03
 8.6775398e+00   5.6139989e+03
 8.6822205e+00   5.6101815e+03
 8.6869001e+00   5.6065971e+03
 8.6915798e+00   5.6065610e+03
 8.6962605e+00   5.6101247e+03
 8.7009401e+00   5.5943264e+03
 8.7056198e+00   5.5957556e+03
 8.7103004e+00   5.5894330e+03
 8.7149801e+00   5.6006896e+03
 8.7196598e+00   5.5973985e+03
 8.7243404e+00   5.5888320e+03
 8.7290201e+00   5.5908722e+03
 8.7336998e+00   5.5799134e+03
 8.7383804e+00   5.5834149e+03
 8.7430601e+00   5.5917376e+03
 8.7477398e+00   5.5747558e+03
 8.7524204e+00   5.5783647e+03
 8.7571001e+00   5.5817434e+03
 8.7617798e+00   5.5548817e+03
 8.7664604e+00   5.5668823e+03
 8.7711401e+00   5.5572329e+03
 8.7758198e+00   5.5472046e+03
 8.7805004e+00   5.5448936e+03
 8.7851801e+00   5.5346865e+03
 8.7898598e+00   5.5208675e+03
 8.7945404e+00   5.5240293e+03
 8.7992201e+00   5.4948653e+03
 8.8038998e+00   5.5026414e+03
 8.8085804e+00   5.4713804e+03
 8.8132601e+00   5.4784241e+03
 8.8179398e+00   5.4696825e+03
 8.8226204e+00   5.4726141e+03
 8.8273001e+00   5.4547493e+03
 8.8319798e+00   5.5125227e+03
 8.8366604e+00   5.5157304e+03
 8.8413401e+00   5.6505953e+03
 8.8460197e+00   5.7928872e+03
 8.8507004e+00   6.1711627e+03
 8.8553801e+00   6.3024648e+03
 8.8600597e+00   6.9759396e+03
 8.8647404e+00   6.3410202e+03
 8.8694201e+00   7.5979434e+03
 8.8740997e+00   6.9045908e+03
 8.8787804e+00   6.4648550e+03
 8.8834600e+00   6.6917300e+03
 8.8881397e+00   6.0717395e+03
 8.8928204e+00   5.6382357e+03
 8.8975000e+00   5.4467971e+03
 8.9021797e+00   5.3039166e+03
 8.9068604e+00   5.1806523e+03
 8.9115400e+00   5.1548286e+03
 8.9162197e+00   5.1019904e+03
 8.9209003e+00   5.0959271e+03
 8.9255800e+00   5.0868868e+03
 8.9302597e+00   5.0598106e+03
 8.9349403e+00   5.0534694e+03
 8.9396200e+00   5.0390780e+03
 8.9442997e+00   5.0599475e+03
 8.9489803e+00   5.0366627e+03
 8.9536600e+00   5.0427519e+03
 8.9583397e+00   5.0276505e+03
 8.9630203e+00   5.0463238e+03
 8.9677000e+00   5.0211381e+03
 8.9723797e+00   5.0360936e+03
 8.9770603e+00   5.0291303e+03
 8.9817400e+00   5.0360147e+03
 8.9864197e+00   5.0274387e+03
 8.9911003e+00   5.0267093e+03
 8.9957800e+00   5.0239023e+03
 9.0004597e+00   5.0242162e+03
 9.0051403e+00   5.0092167e+03
 9.0098200e+00   5.0056620e+03
 9.0144997e+00   5.0066143e+03
 9.0191803e+00   4.9989247e+03
 9.0238600e+00   4.9949055e+03
 9.0285397e+00   4.9736111e+03
 9.0332203e+00   4.9669779e+03
 9.0379000e+00   4.9645657e+03
 9.0425797e+00   4.9559349e+03
 9.0472603e+00   4.9399464e+03
 9.0519400e+00   4.9414156e+03
 9.0566196e+00   4.9437786e+03
 9.0613003e+00   4.9450369e+03
 9.0659800e+00   4.9375283e+03
 9.0706596e+00   4.9305176e+03
 9.0753403e+00   4.9295634e+03
 9.0800200e+00   4.9276442e+03
 9.0846996e+00   4.9225655e+03
 9.0893803e+00   4.9348126e+03
 9.0940599e+00   4.9251894e+03
 9.0987396e+00   4.9320543e+03
 9.1034203e+00   4.9265306e+03
 9.1080999e+00   4.9385928e+03
 9.1127796e+00   4.9396740e+03
 9.1174603e+00   4.9444501e+03
 9.1221399e+00   4.9551854e+03
 9.1268196e+00   4.9498196e+03
 9.1315002e+00   4.9764536e+03
 9.1361799e+00   4.9581629e+03
 9.1408596e+00   4.9808487e+03
 9.1455402e+00   4.9712218e+03
 9.1502199e+00   4.9824177e+03
 9.1548996e+00   4.9783722e+03
 9.1595802e+00   4.9978751e+03
 9.1642599e+00   5.0071183e+03
 9.1689396e+00   5.0086381e+03
 9.1736202e+00   5.0159702e+03
 9.1782999e+00   5.0291401e+03
 9.1829796e+00   5.0508996e+03
 9.1876602e+00   5.0605845e+03
 9.1923399e+00   5.0835830e+03
 9.1970196e+00   5.0814188e+03
 9.2017002e+00   5.1195114e+03
 9.2063799e+00   5.1171829e+03
 9.2110596e+00   5.1521162e+03
 9.2157402e+00   5.1697124e+03
 9.2204199e+00   5.1884807e+03
 9.2250996e+00   5.2247892e+03
 9.2297802e+00   5.2459667e+03
 9.2344599e+00   5.2747255e+03
 9.2391396e+00   5.3129264e+03
 9.2438202e+00   5.3573977e+03
 9.2484999e+00   5.3783736e+03
 9.2531796e+00   5.4333742e+03
 9.2578602e+00   5.4638322e+03
 9.2625399e+00   5.5124930e+03
 9.2672195e+00   5.5517834e+03
 9.2719002e+00   5.5966010e+03
 9.2765799e+00   5.6220534e+03
 9.2812595e+00   5.6525095e+03
 9.2859402e+00   5.6716031e+03
 9.2906199e+00   5.6984284e+03
 9.2952995e+00   5.7021871e+03
 9.2999802e+00   5.7201773e+03
 9.3046598e+00   5.7263507e+03
 9.3093395e+00   5.7393211e+03
 9.3140202e+00   5.7449126e+03
 9.3186998e+00   5.7278087e+03
 9.3233805e+00   5.7258622e+03
 9.3280602e+00   5.7248069e+03
 9.3327398e+00   5.7269824e+03
 9.3374205e+00   5.7135172e+03
 9.3421001e+00   5.7150279e+03
 9.3467798e+00   5.6934838e+03
 9.3514605e+00   5.6879665e+03
 9.3561401e+00   5.6627675e+03
 9.3608198e+00   5.6525894e+03
 9.3655005e+00   5.6350788e+03
 9.3701801e+00   5.6127889e+03
 9.3748598e+00   5.5807159e+03
 9.3795404e+00   5.5580808e+03
 9.3842201e+00   5.5318559e+03
 9.3888998e+00   5.5067381e+03
 9.3935804e+00   5.4796835e+03
 9.3982601e+00   5.4521374e+03
 9.4029398e+00   5.4374151e+03
 9.4076204e+00   5.4057239e+03
 9.4123001e+00   5.3850064e+03
 9.4169798e+00   5.3647694e+03
 9.4216604e+00   5.3474584e+03
 9.4263401e+00   5.3393772e+03
 9.4310198e+00   5.3191794e+03
 9.4357004e+00   5.2870674e+03
 9.4403801e+00   5.2921313e+03
 9.4450598e+00   5.2797657e+03
 9.4497404e+00   5.2784080e+03
 9.4544201e+00   5.2760642e+03
 9.4590998e+00   5.2741785e+03
 9.4637804e+00   5.2795195e+03
 9.4684601e+00   5.2907045e+03
 9.4731398e+00   5.2871810e+03
 9.4778204e+00   5.2997675e+03
 9.4825001e+00   5.3086916e+03
 9.4871798e+00   5.3182782e+03
 9.4918604e+00   5.3228833e+03
 9.4965401e+00   5.3216072e+03
 9.5012197e+00   5.3216783e+03
 9.5059004e+00   5.3245466e+03
 9.5105801e+00   5.3215447e+03
 9.5152597e+00   5.3250128e+03
 9.5199404e+00   5.3066738e+03
 9.5246201e+00   5.3070659e+03
 9.5292997e+00   5.3172463e+03
 9.5339804e+00   5.2973220e+03
 9.5386600e+00   5.2982261e+03
 9.5433397e+00   5.3037122e+03
 9.5480204e+00   5.2940495e+03
 9.5527000e+00   5.3122755e+03
 9.5573797e+00   5.3028566e+03
 9.5620604e+00   5.3287515e+03
 9.5667400e+00   5.3156299e+03
 9.5714197e+00   5.3209623e+03
 9.5761003e+00   5.3221554e+03
 9.5807800e+00   5.3240255e+03
 9.5854597e+00   5.3211077e+03
 9.5901403e+00   5.3314747e+03
 9.5948200e+00   5.3365512e+03
 9.5994997e+00   5.3358608e+03
 9.6041803e+00   5.3376265e+03
 9.6088600e+00   5.3487832e+03
 9.6135397e+00   5.3391215e+03
 9.6182203e+00   5.3371238e+03
 9.6229000e+00   5.3229650e+03
 9.6275797e+00   5.3251751e+03
 9.6322603e+00   5.3088369e+03
 9.6369400e+00   5.3017170e+03
 9.6416197e+00   5.2978795e+03
 9.6463003e+00   5.2855130e+03
 9.6509800e+00   5.2712316e+03
 9.6556597e+00   5.2788036e+03
 9.6603403e+00   5.2643059e+03
 9.6650200e+00   5.2574923e+03
 9.6696997e+00   5.2581443e+03
 9.6743803e+00   5.2735625e+03
 9.6790600e+00   5.2796237e+03
 9.6837397e+00   5.3037722e+03
 9.6884203e+00   5.3846855e+03
 9.6931000e+00   5.4033693e+03
 9.6977797e+00   5.4390398e+03
 9.7024603e+00   5.8775225e+03
 9.7071400e+00   5.9863382e+03
 9.7118196e+00   5.8931048e+03
 9.7165003e+00   6.3286126e+03
 9.7211800e+00   6.0307057e+03
 9.7258596e+00   5.8742508e+03
 9.7305403e+00   5.8209692e+03
 9.7352200e+00   5.5083991e+03
 9.7398996e+00   5.5100352e+03
 9.7445803e+00   5.3346896e+03
 9.7492599e+00   5.2450424e+03
 9.7539396e+00   5.2873720e+03
 9.7586203e+00   5.1592703e+03
 9.7632999e+00   5.1580317e+03
 9.7679796e+00   5.1409496e+03
 9.7726603e+00   5.1282738e+03
 9.7773399e+00   5.1575218e+03
 9.7820196e+00   5.1571450e+03
 9.7867002e+00   5.1819468e+03
 9.7913799e+00   5.2059115e+03
 9.7960596e+00   5.2412517e+03
 9.8007402e+00   5.2738296e+03
 9.8054199e+00   5.3498293e+03
 9.8100996e+00   5.4088392e+03
 9.8147802e+00   5.5090593e+03
 9.8194599e+00   5.6624646e+03
 9.8241396e+00   5.8592934e+03
 9.8288202e+00   6.1939202e+03
 9.8334999e+00   6.6984613e+03
 9.8381796e+00   7.4554294e+03
 9.8428602e+00   8.4758183e+03
 9.8475399e+00   9.9570201e+03
 9.8522196e+00   1.1216145e+04
 9.8569002e+00   1.2722571e+04
 9.8615799e+00   1.3161244e+04
 9.8662596e+00   1.3326589e+04
 9.8709402e+00   1.2336163e+04
 9.8756199e+00   1.1325691e+04
 9.8802996e+00   9.7408143e+03
 9.8849802e+00   8.5327027e+03
 9.8896599e+00   7.4920524e+03
 9.8943396e+00   6.8080310e+03
 9.8990202e+00   6.3358998e+03
 9.9036999e+00   6.0189276e+03
 9.9083796e+00   5.8359325e+03
 9.9130602e+00   5.7242580e+03
 9.9177399e+00   5.6420852e+03
 9.9224195e+00   5.5904206e+03
 9.9271002e+00   5.5676219e+03
 9.9317799e+00   5.5294946e+03
 9.9364595e+00   5.5057584e+03
 9.9411402e+00   5.4985651e+03
 9.9458199e+00   5.4813555e+03
 9.9504995e+00   5.4707288e+03
 9.9551802e+00   5.4679902e+03
 9.9598598e+00   5.4577169e+03
 9.9645395e+00   5.4531416e+03
 9.9692202e+00   5.4390485e+03
 9.9738998e+00   5.4388630e+03
 9.9785805e+00   5.4177807e+03
 9.9832602e+00   5.4246203e+03
 9.9879398e+00   5.4138100e+03
 9.9926205e+00   5.4144120e+03
 9.9973001e+00   5.4228735e+03
 1.0001980e+01   5.3972152e+03
 1.0006660e+01   5.3832998e+03
 1.0011340e+01   5.3727128e+03
 1.0016020e+01   5.3664659e+03
 1.0020700e+01   5.3488833e+03
 1.0025380e+01   5.3286524e+03
 1.0030060e+01   5.3123116e+03
 1.0034740e+01   5.2980430e+03
 1.0039420e+01   5.2722589e+03
 1.0044100e+01   5.2530860e+03
 1.0048780e+01   5.2444682e+03
 1.0053460e+01   5.2350009e+03
 1.0058140e+01   5.2286427e+03
 1.0062820e+01   5.2124417e+03
 1.0067500e+01   5.2034632e+03
 1.0072180e+01   5.1894834e+03
 1.0076860e+01   5.2073142e+03
 1.0081540e+01   5.1770559e+03
 1.0086220e+01   5.1758263e+03
 1.0090900e+01   5.1825967e+03
 1.0095580e+01   5.1780119e+03
 1.0100260e+01   5.1673172e+03
 1.0104940e+01   5.1769360e+03
 1.0109620e+01   5.1888617e+03
 1.0114300e+01   5.1650961e+03
 1.0118980e+01   5.1792985e+03
 1.0123660e+01   5.1648224e+03
 1.0128340e+01   5.1811527e+03
 1.0133020e+01   5.1773607e+03
 1.0137700e+01   5.1925563e+03
 1.0142380e+01   5.1983213e+03
 1.0147060e+01   5.2061312e+03
 1.0151740e+01   5.2030936e+03
 1.0156420e+01   5.2132519e+03
 1.0161100e+01   5.2107764e+03
 1.0165780e+01   5.2225060e+03
 1.0170460e+01   5.2403307e+03
 1.0175140e+01   5.2402891e+03
 1.0179820e+01   5.2353840e+03
 1.0184500e+01   5.2381473e+03
 1.0189180e+01   5.2296505e+03
 1.0193860e+01   5.2579411e+03
 1.0198540e+01   5.2622070e+03
 1.0203220e+01   5.2592319e+03
 1.0207900e+01   5.2798551e+03
 1.0212580e+01   5.2708369e+03
 1.0217260e+01   5.2866025e+03
 1.0221940e+01   5.2741912e+03
 1.0226620e+01   5.2927270e+03
 1.0231300e+01   5.3018424e+03
 1.0235980e+01   5.2951480e+03
 1.0240660e+01   5.3057163e+03
 1.0245340e+01   5.3130514e+03
 1.0250020e+01   5.3184093e+03
 1.0254700e+01   5.3555988e+03
 1.0259380e+01   5.3876409e+03
 1.0264060e+01   5.4644217e+03
 1.0268740e+01   5.6036494e+03
 1.0273420e+01   5.7799505e+03
 1.0278100e+01   6.1098916e+03
 1.0282780e+01   6.5180093e+03
 1.0287460e+01   7.0528152e+03
 1.0292140e+01   7.7332784e+03
 1.0296820e+01   8.2236560e+03
 1.0301500e+01   8.5201697e+03
 1.0306180e+01   8.2961786e+03
 1.0310860e+01   8.1416031e+03
 1.0315540e+01   7.5621385e+03
 1.0320220e+01   6.8509022e+03
 1.0324900e+01   6.3797820e+03
 1.0329580e+01   5.9610692e+03
 1.0334260e+01   5.6480717e+03
 1.0338940e+01   5.4573826e+03
 1.0343620e+01   5.3470413e+03
 1.0348300e+01   5.2721653e+03
 1.0352980e+01   5.2436450e+03
 1.0357660e+01   5.2021135e+03
 1.0362340e+01   5.1649522e+03
 1.0367020e+01   5.1971338e+03
 1.0371700e+01   5.1530616e+03
 1.0376380e+01   5.1687927e+03
 1.0381060e+01   5.1872403e+03
 1.0385740e+01   5.1562111e+03
 1.0390420e+01   5.1799067e+03
 1.0395100e+01   5.1600830e+03
 1.0399780e+01   5.1566534e+03
 1.0404460e+01   5.1936188e+03
 1.0409140e+01   5.1618296e+03
 1.0413820e+01   5.1672683e+03
 1.0418500e+01   5.1973131e+03
 1.0423180e+01   5.1783983e+03
 1.0427860e+01   5.2128217e+03
 1.0432540e+01   5.1762189e+03
 1.0437220e+01   5.1953471e+03
 1.0441900e+01   5.2535212e+03
 1.0446580e+01   5.2270431e+03
 1.0451260e+01   5.2413327e+03
 1.0455940e+01   5.2689780e+03
 1.0460620e+01   5.2969652e+03
 1.0465300e+01   5.3057138e+03
 1.0469980e+01   5.3689174e+03
 1.0474660e+01   5.5817679e+03
 1.0479340e+01   5.5197106e+03
 1.0484020e+01   5.7534579e+03
 1.0488700e+01   5.6541680e+03
 1.0493380e+01   5.8690406e+03
 1.0498060e+01   6.0033668e+03
 1.0502740e+01   6.0035711e+03
 1.0507420e+01   6.0061634e+03
 1.0512100e+01   6.1254013e+03
 1.0516780e+01   6.0663942e+03
 1.0521460e+01   5.6666868e+03
 1.0526140e+01   5.7141884e+03
 1.0530820e+01   5.9069960e+03
 1.0535500e+01   5.4530113e+03
 1.0540180e+01   5.4163834e+03
 1.0544860e+01   5.3081267e+03
 1.0549540e+01   5.2515764e+03
 1.0554220e+01   5.2599890e+03
 1.0558900e+01   5.2231015e+03
 1.0563580e+01   5.2118534e+03
 1.0568260e+01   5.2113717e+03
 1.0572940e+01   5.1828996e+03
 1.0577620e+01   5.1891267e+03
 1.0582300e+01   5.1555742e+03
 1.0586980e+01   5.1576754e+03
 1.0591660e+01   5.1542687e+03
 1.0596340e+01   5.1333927e+03
 1.0601020e+01   5.1316220e+03
 1.0605700e+01   5.1153518e+03
 1.0610380e+01   5.1043924e+03
 1.0615060e+01   5.1206837e+03
 1.0619740e+01   5.1037691e+03
 1.0624420e+01   5.0871392e+03
 1.0629100e+01   5.1018096e+03
 1.0633780e+01   5.0723377e+03
 1.0638460e+01   5.0777043e+03
 1.0643140e+01   5.0718190e+03
 1.0647820e+01   5.0586072e+03
 1.0652500e+01   5.0689603e+03
 1.0657180e+01   5.0646444e+03
 1.0661860e+01   5.0575287e+03
 1.0666540e+01   5.0586634e+03
 1.0671220e+01   5.0480551e+03
 1.0675900e+01   5.0432201e+03
 1.0680580e+01   5.0433427e+03
 1.0685260e+01   5.0347337e+03
 1.0689940e+01   5.0549140e+03
 1.0694620e+01   5.0383346e+03
 1.0699300e+01   5.0547510e+03
 1.0703980e+01   5.0378875e+03
 1.0708660e+01   5.0492558e+03
 1.0713340e+01   5.0588736e+03
 1.0718020e+01   5.0540816e+03
 1.0722700e+01   5.0545962e+03
 1.0727380e+01   5.0839390e+03
 1.0732060e+01   5.0630045e+03
 1.0736740e+01   5.0835093e+03
 1.0741420e+01   5.0827376e+03
 1.0746100e+01   5.0998548e+03
 1.0750780e+01   5.1093672e+03
 1.0755460e+01   5.0969569e+03
 1.0760140e+01   5.0979308e+03
 1.0764820e+01   5.1015045e+03
 1.0769500e+01   5.0997302e+03
 1.0774180e+01   5.0912693e+03
 1.0778860e+01   5.1059577e+03
 1.0783540e+01   5.0856502e+03
 1.0788220e+01   5.0940974e+03
 1.0792900e+01   5.0668552e+03
 1.0797580e+01   5.0886541e+03
 1.0802260e+01   5.0812314e+03
 1.0806940e+01   5.0526854e+03
 1.0811620e+01   5.0642233e+03
 1.0816300e+01   5.0519917e+03
 1.0820980e+01   5.0528908e+03
 1.0825660e+01   5.0463666e+03
 1.0830340e+01   5.0471928e+03
 1.0835020e+01   5.0386626e+03
 1.0839700e+01   5.0340775e+03
 1.0844380e+01   5.0356356e+03
 1.0849060e+01   5.0181912e+03
 1.0853740e+01   5.0125436e+03
 1.0858420e+01   5.0107629e+03
 1.0863100e+01   5.0145449e+03
 1.0867780e+01   5.0143980e+03
 1.0872460e+01   5.0011893e+03
 1.0877140e+01   4.9877563e+03
 1.0881820e+01   4.9777639e+03
 1.0886500e+01   4.9686704e+03
 1.0891180e+01   4.9526925e+03
 1.0895860e+01   4.9399667e+03
 1.0900540e+01   4.9338731e+03
 1.0905220e+01   4.9173440e+03
 1.0909900e+01   4.9183699e+03
 1.0914580e+01   4.9020370e+03
 1.0919260e+01   4.8925723e+03
 1.0923940e+01   4.8787099e+03
 1.0928620e+01   4.8723595e+03
 1.0933300e+01   4.8582273e+03
 1.0937980e+01   4.8623431e+03
 1.0942660e+01   4.8461708e+03
 1.0947340e+01   4.8422084e+03
 1.0952020e+01   4.8340173e+03
 1.0956700e+01   4.8232283e+03
 1.0961380e+01   4.8250687e+03
 1.0966060e+01   4.8240075e+03
 1.0970740e+01   4.8148439e+03
 1.0975420e+01   4.8111458e+03
 1.0980100e+01   4.7977326e+03
 1.0984780e+01   4.7947425e+03
 1.0989460e+01   4.7974472e+03
 1.0994140e+01   4.7823030e+03
 1.0998820e+01   4.7896593e+03
 1.1003500e+01   4.7735415e+03
 1.1008180e+01   4.7817869e+03
 1.1012860e+01   4.7875587e+03
 1.1017540e+01   4.7840093e+03
 1.1022220e+01   4.7873666e+03
 1.1026900e+01   4.7874808e+03
 1.1031580e+01   4.7860764e+03
 1.1036260e+01   4.8031441e+03
 1.1040940e+01   4.8004147e+03
 1.1045620e+01   4.8046652e+03
 1.1050300e+01   4.8169663e+03
 1.1054980e+01   4.8079409e+03
 1.1059660e+01   4.8263175e+03
 1.1064340e+01   4.8244040e+03
 1.1069020e+01   4.8343964e+03
 1.1073700e+01   4.8506156e+03
 1.1078380e+01   4.8599788e+03
 1.1083060e+01   4.8683522e+03
 1.1087740e+01   4.8834721e+03
 1.1092420e+01   4.8953713e+03
 1.1097100e+01   4.9090206e+03
 1.1101780e+01   4.9440114e+03
 1.1106460e+01   4.9501081e+03
 1.1111140e+01   4.9840910e+03
 1.1115820e+01   4.9917433e+03
 1.1120500e+01   5.0213594e+03
 1.1125180e+01   5.0199176e+03
 1.1129860e+01   5.0312998e+03
 1.1134540e+01   5.0396414e+03
 1.1139220e+01   5.0304182e+03
 1.1143900e+01   5.0314604e+03
 1.1148580e+01   5.0307032e+03
 1.1153260e+01   5.0206934e+03
 1.1157940e+01   5.0159512e+03
 1.1162620e+01   4.9968489e+03
 1.1167300e+01   4.9856580e+03
 1.1171980e+01   4.9868055e+03
 1.1176660e+01   4.9533351e+03
 1.1181340e+01   4.9552594e+03
 1.1186020e+01   4.9221778e+03
 1.1190700e+01   4.9103671e+03
 1.1195380e+01   4.9195184e+03
 1.1200060e+01   4.8744326e+03
 1.1204740e+01   4.8796474e+03
 1.1209420e+01   4.9086752e+03
 1.1214100e+01   4.8681290e+03
 1.1218780e+01   4.9343383e+03
 1.1223460e+01   4.8602353e+03
 1.1228140e+01   4.8505300e+03
 1.1232820e+01   4.9096056e+03
 1.1237500e+01   4.8396136e+03
 1.1242180e+01   4.8396812e+03
 1.1246860e+01   4.8180725e+03
 1.1251540e+01   4.8018646e+03
 1.1256220e+01   4.8040842e+03
 1.1260900e+01   4.7780785e+03
 1.1265580e+01   4.7758116e+03
 1.1270260e+01   4.7626387e+03
 1.1274940e+01   4.7549415e+03
 1.1279620e+01   4.7598181e+03
 1.1284300e+01   4.7323929e+03
 1.1288980e+01   4.7260468e+03
 1.1293660e+01   4.7315164e+03
 1.1298340e+01   4.7062548e+03
 1.1303020e+01   4.7099587e+03
 1.1307700e+01   4.7044446e+03
 1.1312380e+01   4.6873153e+03
 1.1317060e+01   4.6836066e+03
 1.1321740e+01   4.6697991e+03
 1.1326420e+01   4.6642521e+03
 1.1331100e+01   4.6596193e+03
 1.1335780e+01   4.6445200e+03
 1.1340460e+01   4.6394515e+03
 1.1345140e+01   4.6261673e+03
 1.1349820e+01   4.6171249e+03
 1.1354500e+01   4.6261214e+03
 1.1359180e+01   4.6021409e+03
 1.1363860e+01   4.6052303e+03
 1.1368540e+01   4.5887149e+03
 1.1373220e+01   4.5690812e+03
 1.1377900e+01   4.5809779e+03
 1.1382580e+01   4.5679708e+03
 1.1387260e+01   4.5615161e+03
 1.1391940e+01   4.5639086e+03
 1.1396620e+01   4.5429630e+03
 1.1401300e+01   4.5430469e+03
 1.1405980e+01   4.5460272e+03
 1.1410660e+01   4.5305585e+03
 1.1415340e+01   4.5380821e+03
 1.1420020e+01   4.5322792e+03
 1.1424700e+01   4.5291165e+03
 1.1429380e+01   4.5326044e+03
 1.1434060e+01   4.5110161e+03
 1.1438740e+01   4.5121071e+03
 1.1443420e+01   4.5190541e+03
 1.1448100e+01   4.5074895e+03
 1.1452780e+01   4.5092533e+03
 1.1457460e+01   4.4997149e+03
 1.1462140e+01   4.4977943e+03
 1.1466820e+01   4.5115785e+03
 1.1471500e+01   4.4872999e+03
 1.1476180e+01   4.5062291e+03
 1.1480860e+01   4.4910712e+03
 1.1485540e+01   4.4917267e+03
 1.1490220e+01   4.4867947e+03
 1.1494900e+01   4.4835035e+03
 1.1499580e+01   4.4927582e+03
 1.1504260e+01   4.4792504e+03
 1.1508940e+01   4.4747313e+03
 1.1513620e+01   4.4757804e+03
 1.1518300e+01   4.4625056e+03
 1.1522980e+01   4.4544134e+03
 1.1527660e+01   4.4642869e+03
 1.1532340e+01   4.4384096e+03
 1.1537020e+01   4.4421693e+03
 1.1541700e+01   4.4277491e+03
 1.1546380e+01   4.4276793e+03
 1.1551060e+01   4.4239961e+03
 1.1555740e+01   4.4067358e+03
 1.1560420e+01   4.4160837e+03
 1.1565100e+01   4.4081159e+03
 1.1569780e+01   4.3974317e+03
 1.1574460e+01   4.4032982e+03
 1.1579140e+01   4.4027591e+03
 1.1583820e+01   4.3941648e+03
 1.1588500e+01   4.3956119e+03
 1.1593180e+01   4.3874755e+03
 1.1597860e+01   4.3915741e+03
 1.1602540e+01   4.3825813e+03
 1.1607220e+01   4.3936773e+03
 1.1611900e+01   4.3842436e+03
 1.1616580e+01   4.3782447e+03
 1.1621260e+01   4.3856268e+03
 1.1625940e+01   4.3796910e+03
 1.1630620e+01   4.3748643e+03
 1.1635300e+01   4.3850025e+03
 1.1639980e+01   4.3786648e+03
 1.1644660e+01   4.3766687e+03
 1.1649340e+01   4.3709291e+03
 1.1654020e+01   4.3624288e+03
 1.1658700e+01   4.3515481e+03
 1.1663380e+01   4.3564971e+03
 1.1668060e+01   4.3420555e+03
 1.1672740e+01   4.3480354e+03
 1.1677420e+01   4.3420638e+03
 1.1682100e+01   4.3421436e+03
 1.1686780e+01   4.3351599e+03
 1.1691460e+01   4.3342896e+03
 1.1696140e+01   4.3348260e+03
 1.1700820e+01   4.3314001e+03
 1.1705500e+01   4.3307449e+03
 1.1710180e+01   4.3364648e+03
 1.1714860e+01   4.3264636e+03
 1.1719540e+01   4.3272484e+03
 1.1724220e+01   4.3229332e+03
 1.1728900e+01   4.3170954e+03
 1.1733580e+01   4.3328054e+03
 1.1738260e+01   4.3192046e+03
 1.1742940e+01   4.3187415e+03
 1.1747620e+01   4.3267919e+03
 1.1752300e+01   4.3274723e+03
 1.1756980e+01   4.3221638e+03
 1.1761660e+01   4.3307205e+03
 1.1766340e+01   4.3299710e+03
 1.1771020e+01   4.3283415e+03
 1.1775700e+01   4.3223593e+03
 1.1780380e+01   4.3299583e+03
 1.1785060e+01   4.3320840e+03
 1.1789740e+01   4.3423110e+03
 1.1794420e+01   4.3395743e+03
 1.1799100e+01   4.3357328e+03
 1.1803780e+01   4.3400416e+03
 1.1808460e+01   4.3402167e+03
 1.1813140e+01   4.3418507e+03
 1.1817820e+01   4.3483837e+03
 1.1822500e+01   4.3540832e+03
 1.1827180e+01   4.3521349e+03
 1.1831860e+01   4.3474225e+03
 1.1836540e+01   4.3533405e+03
 1.1841220e+01   4.3585255e+03
 1.1845900e+01   4.3727908e+03
 1.1850580e+01   4.3690505e+03
 1.1855260e+01   4.3807958e+03
 1.1859940e+01   4.4007069e+03
 1.1864620e+01   4.4141531e+03
 1.1869300e+01   4.4427528e+03
 1.1873980e+01   4.4902626e+03
 1.1878660e+01   4.5503371e+03
 1.1883340e+01   4.6345257e+03
 1.1888020e+01   4.7297303e+03
 1.1892700e+01   4.8579988e+03
 1.1897380e+01   4.9651965e+03
 1.1902060e+01   5.0720299e+03
 1.1906740e+01   5.0208590e+03
 1.1911420e+01   5.0155394e+03
 1.1916100e+01   4.9391452e+03
 1.1920780e+01   4.7937269e+03
 1.1925460e+01   4.7354382e+03
 1.1930140e+01   4.6177600e+03
 1.1934820e+01   4.5540338e+03
 1.1939500e+01   4.5110963e+03
 1.1944180e+01   4.4855623e+03
 1.1948860e+01   4.4803075e+03
 1.1953540e+01   4.4728528e+03
 1.1958220e+01   4.4694000e+03
 1.1962900e+01   4.4660250e+03
 1.1967580e+01   4.4851487e+03
 1.1972260e+01   4.4712655e+03
 1.1976940e+01   4.4804028e+03
 1.1981620e+01   4.4913308e+03
 1.1986300e+01   4.4985565e+03
 1.1990980e+01   4.5076255e+03
 1.1995660e+01   4.4981708e+03
 1.2000340e+01   4.5095421e+03
 1.2005020e+01   4.5095536e+03
 1.2009700e+01   4.5196825e+03
 1.2014380e+01   4.5141805e+03
 1.2019060e+01   4.5236364e+03
 1.2023740e+01   4.4939242e+03
 1.2028420e+01   4.5093035e+03
 1.2033100e+01   4.4935152e+03
 1.2037780e+01   4.5089617e+03
 1.2042460e+01   4.4930462e+03
 1.2047140e+01   4.4956704e+03
 1.2051820e+01   4.4960103e+03
 1.2056500e+01   4.4800176e+03
 1.2061180e+01   4.4850188e+03
 1.2065860e+01   4.4920942e+03
 1.2070540e+01   4.4879515e+03
 1.2075220e+01   4.4754399e+03
 1.2079900e+01   4.4893289e+03
 1.2084580e+01   4.4732431e+03
 1.2089260e+01   4.4747304e+03
 1.2093940e+01   4.4797079e+03
 1.2098620e+01   4.4767562e+03
 1.2103300e+01   4.4601838e+03
 1.2107980e+01   4.4543209e+03
 1.2112660e+01   4.4541390e+03
 1.2117340e+01   4.4471694e+03
 1.2122020e+01   4.4302149e+03
 1.2126700e+01   4.4134278e+03
 1.2131380e+01   4.3983110e+03
 1.2136060e+01   4.3830553e+03
 1.2140740e+01   4.3696914e+03
 1.2145420e+01   4.3484718e+03
 1.2150100e+01   4.3277457e+03
 1.2154780e+01   4.3132523e+03
 1.2159460e+01   4.2870050e+03
 1.2164140e+01   4.2713892e+03
 1.2168820e+01   4.2477740e+03
 1.2173500e+01   4.2386366e+03
 1.2178180e+01   4.2139891e+03
 1.2182860e+01   4.2038063e+03
 1.2187540e+01   4.1946313e+03
 1.2192220e+01   4.1814801e+03
 1.2196900e+01   4.1770881e+03
 1.2201580e+01   4.1543130e+03
 1.2206260e+01   4.1533129e+03
 1.2210940e+01   4.1459250e+03
 1.2215620e+01   4.1344675e+03
 1.2220300e+01   4.1274469e+03
 1.2224980e+01   4.1282392e+03
 1.2229660e+01   4.1169416e+03
 1.2234340e+01   4.1262561e+03
 1.2239020e+01   4.1073715e+03
 1.2243700e+01   4.1093172e+03
 1.2248380e+01   4.1001679e+03
 1.2253060e+01   4.1000479e+03
 1.2257740e+01   4.0946421e+03
 1.2262420e+01   4.0970956e+03
 1.2267100e+01   4.0891340e+03
 1.2271780e+01   4.0850798e+03
 1.2276460e+01   4.0911454e+03
 1.2281140e+01   4.0870572e+03
 1.2285820e+01   4.0912335e+03
 1.2290500e+01   4.0840126e+03
 1.2295180e+01   4.0875733e+03
 1.2299860e+01   4.0764846e+03
 1.2304540e+01   4.0867767e+03
 1.2309220e+01   4.0909825e+03
 1.2313900e+01   4.0943138e+03
 1.2318580e+01   4.0791299e+03
 1.2323260e+01   4.0866269e+03
 1.2327940e+01   4.0821388e+03
 1.2332620e+01   4.0861172e+03
 1.2337300e+01   4.0855872e+03
 1.2341980e+01   4.0965060e+03
 1.2346660e+01   4.0882920e+03
 1.2351340e+01   4.0971513e+03
 1.2356020e+01   4.1025809e+03
 1.2360700e+01   4.1022937e+03
 1.2365380e+01   4.1045060e+03
 1.2370060e+01   4.1070804e+03
 1.2374740e+01   4.1265664e+03
 1.2379420e+01   4.1138412e+03
 1.2384100e+01   4.1317323e+03
 1.2388780e+01   4.1254384e+03
 1.2393460e+01   4.1346720e+03
 1.2398140e+01   4.1333975e+03
 1.2402820e+01   4.1304656e+03
 1.2407500e+01   4.1350337e+03
 1.2412180e+01   4.1301009e+03
 1.2416860e+01   4.1390425e+03
 1.2421540e+01   4.1442446e+03
 1.2426220e+01   4.1479528e+03
 1.2430900e+01   4.1467448e+03
 1.2435580e+01   4.1411347e+03
 1.2440260e+01   4.1540985e+03
 1.2444940e+01   4.1530231e+03
 1.2449620e+01   4.1693187e+03
 1.2454300e+01   4.1548315e+03
 1.2458980e+01   4.1711249e+03
 1.2463660e+01   4.1727082e+03
 1.2468340e+01   4.1860685e+03
 1.2473020e+01   4.1892379e+03
 1.2477700e+01   4.1909695e+03
 1.2482380e+01   4.1905126e+03
 1.2487060e+01   4.1930663e+03
 1.2491740e+01   4.1875617e+03
 1.2496420e+01   4.1930820e+03
 1.2501100e+01   4.1857956e+03
 1.2505780e+01   4.1811899e+03
 1.2510460e+01   4.1910803e+03
 1.2515140e+01   4.1816367e+03
 1.2519820e+01   4.1817623e+03
 1.2524500e+01   4.1712675e+03
 1.2529180e+01   4.1723694e+03
 1.2533860e+01   4.1753887e+03
 1.2538540e+01   4.1734922e+03
 1.2543220e+01   4.1833662e+03
 1.2547900e+01   4.1913151e+03
 1.2552580e+01   4.1852080e+03
 1.2557260e+01   4.2197877e+03
 1.2561940e+01   4.2154767e+03
 1.2566620e+01   4.2049828e+03
 1.2571300e+01   4.2276213e+03
 1.2575980e+01   4.2186105e+03
 1.2580660e+01   4.2033914e+03
 1.2585340e+01   4.2193391e+03
 1.2590020e+01   4.2142927e+03
 1.2594700e+01   4.2048348e+03
 1.2599380e+01   4.2206990e+03
 1.2604060e+01   4.2264876e+03
 1.2608740e+01   4.2223942e+03
 1.2613420e+01   4.2372637e+03
 1.2618100e+01   4.2305586e+03
 1.2622780e+01   4.2486376e+03
 1.2627460e+01   4.2410966e+03
 1.2632140e+01   4.2562811e+03
 1.2636820e+01   4.2520275e+03
 1.2641500e+01   4.2540798e+03
 1.2646180e+01   4.2490423e+03
 1.2650860e+01   4.2447245e+03
 1.2655540e+01   4.2492174e+03
 1.2660220e+01   4.2528707e+03
 1.2664900e+01   4.2441955e+03
 1.2669580e+01   4.2410742e+03
 1.2674260e+01   4.2289961e+03
 1.2678940e+01   4.2324043e+03
 1.2683620e+01   4.2274840e+03
 1.2688300e+01   4.2169357e+03
 1.2692980e+01   4.2194990e+03
 1.2697660e+01   4.2160877e+03
