MA2b-00005.tif Azm= 0.00
2-Theta Angle (Degrees)
Intensity
       2500
 1.0023400e+00   7.9900370e+03
 1.0070200e+00   7.9813758e+03
 1.0117000e+00   7.9547336e+03
 1.0163800e+00   7.9472212e+03
 1.0210600e+00   7.8934983e+03
 1.0257400e+00   7.8923271e+03
 1.0304199e+00   7.8176871e+03
 1.0351000e+00   7.8413859e+03
 1.0397800e+00   7.7944162e+03
 1.0444601e+00   7.7301953e+03
 1.0491400e+00   7.7194995e+03
 1.0538200e+00   7.7182133e+03
 1.0585001e+00   7.6851560e+03
 1.0631800e+00   7.6778539e+03
 1.0678600e+00   7.6611231e+03
 1.0725400e+00   7.6615192e+03
 1.0772200e+00   7.5893076e+03
 1.0819000e+00   7.5873050e+03
 1.0865800e+00   7.5562943e+03
 1.0912600e+00   7.5704079e+03
 1.0959400e+00   7.4800941e+03
 1.1006200e+00   7.4990005e+03
 1.1052999e+00   7.4673005e+03
 1.1099800e+00   7.4646062e+03
 1.1146600e+00   7.4901969e+03
 1.1193399e+00   7.4310886e+03
 1.1240200e+00   7.4216397e+03
 1.1287000e+00   7.4063206e+03
 1.1333801e+00   7.3839649e+03
 1.1380600e+00   7.3628137e+03
 1.1427400e+00   7.3471909e+03
 1.1474200e+00   7.3282326e+03
 1.1521000e+00   7.3523623e+03
 1.1567800e+00   7.3263062e+03
 1.1614600e+00   7.3054991e+03
 1.1661400e+00   7.3071101e+03
 1.1708200e+00   7.3026575e+03
 1.1755000e+00   7.2790792e+03
 1.1801800e+00   7.2739352e+03
 1.1848600e+00   7.2814097e+03
 1.1895400e+00   7.2734237e+03
 1.1942199e+00   7.2655625e+03
 1.1989000e+00   7.2635546e+03
 1.2035800e+00   7.2357596e+03
 1.2082601e+00   7.2486843e+03
 1.2129400e+00   7.2186533e+03
 1.2176200e+00   7.2041259e+03
 1.2223001e+00   7.2438329e+03
 1.2269800e+00   7.2069682e+03
 1.2316600e+00   7.1982186e+03
 1.2363400e+00   7.2084042e+03
 1.2410200e+00   7.1893666e+03
 1.2457000e+00   7.2101175e+03
 1.2503800e+00   7.1774993e+03
 1.2550600e+00   7.1860637e+03
 1.2597400e+00   7.1763404e+03
 1.2644200e+00   7.1630695e+03
 1.2691000e+00   7.2106099e+03
 1.2737800e+00   7.1535808e+03
 1.2784600e+00   7.2084774e+03
 1.2831399e+00   7.1551125e+03
 1.2878200e+00   7.1710421e+03
 1.2925000e+00   7.1693971e+03
 1.2971801e+00   7.1737881e+03
 1.3018600e+00   7.1800458e+03
 1.3065400e+00   7.1966281e+03
 1.3112200e+00   7.2141410e+03
 1.3159000e+00   7.1806837e+03
 1.3205800e+00   7.1684618e+03
 1.3252600e+00   7.1869248e+03
 1.3299400e+00   7.2160770e+03
 1.3346200e+00   7.1839704e+03
 1.3393000e+00   7.2183011e+03
 1.3439800e+00   7.1842866e+03
 1.3486600e+00   7.2287009e+03
 1.3533400e+00   7.2314927e+03
 1.3580199e+00   7.2187150e+03
 1.3627000e+00   7.2187337e+03
 1.3673800e+00   7.2553025e+03
 1.3720599e+00   7.2679500e+03
 1.3767400e+00   7.2680298e+03
 1.3814200e+00   7.2663711e+03
 1.3861001e+00   7.2935021e+03
 1.3907800e+00   7.3161008e+03
 1.3954600e+00   7.3219931e+03
 1.4001400e+00   7.3366619e+03
 1.4048200e+00   7.3400381e+03
 1.4095000e+00   7.3764062e+03
 1.4141800e+00   7.3783623e+03
 1.4188600e+00   7.3676298e+03
 1.4235400e+00   7.3820142e+03
 1.4282200e+00   7.4229856e+03
 1.4329000e+00   7.4380535e+03
 1.4375800e+00   7.4805549e+03
 1.4422600e+00   7.4569325e+03
 1.4469399e+00   7.5245225e+03
 1.4516200e+00   7.5591780e+03
 1.4563000e+00   7.5989010e+03
 1.4609801e+00   7.5940837e+03
 1.4656600e+00   7.6209904e+03
 1.4703400e+00   7.6397800e+03
 1.4750201e+00   7.6533506e+03
 1.4797000e+00   7.6839982e+03
 1.4843800e+00   7.7040649e+03
 1.4890600e+00   7.7211688e+03
 1.4937400e+00   7.7363115e+03
 1.4984200e+00   7.7644625e+03
 1.5031000e+00   7.7983965e+03
 1.5077800e+00   7.7885144e+03
 1.5124600e+00   7.8289118e+03
 1.5171400e+00   7.8143486e+03
 1.5218199e+00   7.8412251e+03
 1.5265000e+00   7.8460789e+03
 1.5311800e+00   7.8772122e+03
 1.5358599e+00   7.8319668e+03
 1.5405400e+00   7.8899599e+03
 1.5452200e+00   7.8263834e+03
 1.5499001e+00   7.8320685e+03
 1.5545800e+00   7.8209775e+03
 1.5592600e+00   7.8316360e+03
 1.5639400e+00   7.7977605e+03
 1.5686200e+00   7.7746334e+03
 1.5733000e+00   7.7843245e+03
 1.5779800e+00   7.7876017e+03
 1.5826600e+00   7.7536466e+03
 1.5873400e+00   7.7663170e+03
 1.5920200e+00   7.7638551e+03
 1.5967000e+00   7.7662619e+03
 1.6013800e+00   7.7419003e+03
 1.6060600e+00   7.7687248e+03
 1.6107399e+00   7.7725041e+03
 1.6154200e+00   7.7665465e+03
 1.6201000e+00   7.7658290e+03
 1.6247801e+00   7.7515845e+03
 1.6294600e+00   7.7625155e+03
 1.6341400e+00   7.7678791e+03
 1.6388201e+00   7.7754710e+03
 1.6435000e+00   7.7468915e+03
 1.6481800e+00   7.7606608e+03
 1.6528600e+00   7.7875402e+03
 1.6575400e+00   7.7641981e+03
 1.6622200e+00   7.7606550e+03
 1.6669000e+00   7.7543532e+03
 1.6715800e+00   7.7601393e+03
 1.6762600e+00   7.7792817e+03
 1.6809400e+00   7.7557483e+03
 1.6856200e+00   7.7649795e+03
 1.6903000e+00   7.7788359e+03
 1.6949800e+00   7.7813030e+03
 1.6996599e+00   7.7665947e+03
 1.7043400e+00   7.7561268e+03
 1.7090200e+00   7.7862887e+03
 1.7137001e+00   7.7797621e+03
 1.7183800e+00   7.7914131e+03
 1.7230600e+00   7.8136740e+03
 1.7277400e+00   7.7902431e+03
 1.7324200e+00   7.7860507e+03
 1.7371000e+00   7.7863200e+03
 1.7417800e+00   7.8090115e+03
 1.7464600e+00   7.7964238e+03
 1.7511400e+00   7.8438513e+03
 1.7558200e+00   7.8123560e+03
 1.7605000e+00   7.8445057e+03
 1.7651800e+00   7.8474735e+03
 1.7698600e+00   7.8493277e+03
 1.7745399e+00   7.8557337e+03
 1.7792200e+00   7.8657457e+03
 1.7839000e+00   7.8804680e+03
 1.7885799e+00   7.9241830e+03
 1.7932600e+00   7.8984995e+03
 1.7979400e+00   7.9316078e+03
 1.8026201e+00   7.9341281e+03
 1.8073000e+00   7.9253539e+03
 1.8119800e+00   7.9805974e+03
 1.8166600e+00   7.9996783e+03
 1.8213400e+00   7.9935448e+03
 1.8260200e+00   8.0214404e+03
 1.8307000e+00   8.0218944e+03
 1.8353800e+00   8.0330620e+03
 1.8400600e+00   8.0643402e+03
 1.8447400e+00   8.0772925e+03
 1.8494200e+00   8.0899270e+03
 1.8541000e+00   8.1235137e+03
 1.8587800e+00   8.1288088e+03
 1.8634599e+00   8.1883570e+03
 1.8681400e+00   8.1945847e+03
 1.8728200e+00   8.1994542e+03
 1.8775001e+00   8.2282430e+03
 1.8821800e+00   8.2371182e+03
 1.8868600e+00   8.2478482e+03
 1.8915401e+00   8.2955976e+03
 1.8962200e+00   8.3115864e+03
 1.9009000e+00   8.3213336e+03
 1.9055800e+00   8.3514730e+03
 1.9102600e+00   8.3868879e+03
 1.9149400e+00   8.3761153e+03
 1.9196200e+00   8.4274981e+03
 1.9243000e+00   8.4398352e+03
 1.9289800e+00   8.4783301e+03
 1.9336600e+00   8.4924799e+03
 1.9383399e+00   8.5240796e+03
 1.9430200e+00   8.5530579e+03
 1.9477000e+00   8.5931015e+03
 1.9523799e+00   8.5852253e+03
 1.9570600e+00   8.6271666e+03
 1.9617400e+00   8.6443815e+03
 1.9664201e+00   8.6811707e+03
 1.9711000e+00   8.6955276e+03
 1.9757800e+00   8.7265422e+03
 1.9804600e+00   8.7531120e+03
 1.9851400e+00   8.7974468e+03
 1.9898200e+00   8.8084781e+03
 1.9945000e+00   8.8118908e+03
 1.9991800e+00   8.8510885e+03
 2.0038600e+00   8.8837722e+03
 2.0085399e+00   8.9050400e+03
 2.0132201e+00   8.9446992e+03
 2.0179000e+00   8.9591155e+03
 2.0225799e+00   8.9982158e+03
 2.0272601e+00   9.0528145e+03
 2.0319400e+00   9.0470024e+03
 2.0366199e+00   9.0821405e+03
 2.0413001e+00   9.1310860e+03
 2.0459800e+00   9.1439911e+03
 2.0506599e+00   9.1760227e+03
 2.0553401e+00   9.2361103e+03
 2.0600200e+00   9.2559658e+03
 2.0646999e+00   9.3190738e+03
 2.0693800e+00   9.3673957e+03
 2.0740600e+00   9.4480965e+03
 2.0787399e+00   9.5306009e+03
 2.0834200e+00   9.6422134e+03
 2.0881000e+00   9.7368121e+03
 2.0927801e+00   9.9418646e+03
 2.0974600e+00   1.0170831e+04
 2.1021399e+00   1.0515475e+04
 2.1068201e+00   1.0939201e+04
 2.1115000e+00   1.1645377e+04
 2.1161799e+00   1.2553646e+04
 2.1208601e+00   1.3951249e+04
 2.1255400e+00   1.5819601e+04
 2.1302199e+00   1.8282625e+04
 2.1349001e+00   2.1038696e+04
 2.1395800e+00   2.3841574e+04
 2.1442599e+00   2.6344221e+04
 2.1489401e+00   2.8167639e+04
 2.1536200e+00   2.8958637e+04
 2.1582999e+00   2.8720023e+04
 2.1629801e+00   2.7776872e+04
 2.1676600e+00   2.6372411e+04
 2.1723399e+00   2.4706379e+04
 2.1770201e+00   2.3051237e+04
 2.1817000e+00   2.1461711e+04
 2.1863799e+00   2.0010395e+04
 2.1910601e+00   1.8590075e+04
 2.1957400e+00   1.7382867e+04
 2.2004199e+00   1.6190791e+04
 2.2051001e+00   1.5254253e+04
 2.2097800e+00   1.4459451e+04
 2.2144599e+00   1.3836060e+04
 2.2191401e+00   1.3343097e+04
 2.2238200e+00   1.2980226e+04
 2.2284999e+00   1.2683529e+04
 2.2331800e+00   1.2466382e+04
 2.2378600e+00   1.2261028e+04
 2.2425399e+00   1.2073676e+04
 2.2472200e+00   1.1837300e+04
 2.2519000e+00   1.1615114e+04
 2.2565801e+00   1.1395188e+04
 2.2612600e+00   1.1175426e+04
 2.2659400e+00   1.0982184e+04
 2.2706201e+00   1.0838316e+04
 2.2753000e+00   1.0718337e+04
 2.2799799e+00   1.0648180e+04
 2.2846601e+00   1.0597768e+04
 2.2893400e+00   1.0551787e+04
 2.2940199e+00   1.0546224e+04
 2.2987001e+00   1.0561708e+04
 2.3033800e+00   1.0558854e+04
 2.3080599e+00   1.0557846e+04
 2.3127401e+00   1.0568210e+04
 2.3174200e+00   1.0576242e+04
 2.3220999e+00   1.0614373e+04
 2.3267801e+00   1.0619567e+04
 2.3314600e+00   1.0641727e+04
 2.3361399e+00   1.0680314e+04
 2.3408201e+00   1.0690113e+04
 2.3455000e+00   1.0738416e+04
 2.3501799e+00   1.0741619e+04
 2.3548601e+00   1.0810080e+04
 2.3595400e+00   1.0823502e+04
 2.3642199e+00   1.0836126e+04
 2.3689001e+00   1.0877122e+04
 2.3735800e+00   1.0908362e+04
 2.3782599e+00   1.0931592e+04
 2.3829401e+00   1.0963598e+04
 2.3876200e+00   1.0994686e+04
 2.3922999e+00   1.1047544e+04
 2.3969800e+00   1.1075438e+04
 2.4016600e+00   1.1121425e+04
 2.4063399e+00   1.1149892e+04
 2.4110200e+00   1.1163750e+04
 2.4157000e+00   1.1196312e+04
 2.4203801e+00   1.1245019e+04
 2.4250600e+00   1.1278087e+04
 2.4297400e+00   1.1301787e+04
 2.4344201e+00   1.1382368e+04
 2.4391000e+00   1.1374899e+04
 2.4437799e+00   1.1446652e+04
 2.4484601e+00   1.1457142e+04
 2.4531400e+00   1.1506617e+04
 2.4578199e+00   1.1539237e+04
 2.4625001e+00   1.1569151e+04
 2.4671800e+00   1.1601848e+04
 2.4718599e+00   1.1644288e+04
 2.4765401e+00   1.1666496e+04
 2.4812200e+00   1.1722352e+04
 2.4858999e+00   1.1762544e+04
 2.4905801e+00   1.1800553e+04
 2.4952600e+00   1.1841141e+04
 2.4999399e+00   1.1863801e+04
 2.5046201e+00   1.1926270e+04
 2.5093000e+00   1.1937636e+04
 2.5139799e+00   1.2001295e+04
 2.5186601e+00   1.2030179e+04
 2.5233400e+00   1.2061221e+04
 2.5280199e+00   1.2089845e+04
 2.5327001e+00   1.2126976e+04
 2.5373800e+00   1.2181608e+04
 2.5420599e+00   1.2212171e+04
 2.5467401e+00   1.2227135e+04
 2.5514200e+00   1.2258644e+04
 2.5560999e+00   1.2304388e+04
 2.5607800e+00   1.2325809e+04
 2.5654600e+00   1.2361776e+04
 2.5701399e+00   1.2399942e+04
 2.5748200e+00   1.2420733e+04
 2.5795000e+00   1.2434250e+04
 2.5841801e+00   1.2497104e+04
 2.5888600e+00   1.2510508e+04
 2.5935400e+00   1.2527930e+04
 2.5982201e+00   1.2551663e+04
 2.6029000e+00   1.2579294e+04
 2.6075799e+00   1.2602609e+04
 2.6122601e+00   1.2626756e+04
 2.6169400e+00   1.2654380e+04
 2.6216199e+00   1.2666580e+04
 2.6263001e+00   1.2690245e+04
 2.6309800e+00   1.2718186e+04
 2.6356599e+00   1.2740729e+04
 2.6403401e+00   1.2772967e+04
 2.6450200e+00   1.2779418e+04
 2.6496999e+00   1.2783475e+04
 2.6543801e+00   1.2804046e+04
 2.6590600e+00   1.2826509e+04
 2.6637399e+00   1.2832532e+04
 2.6684201e+00   1.2857119e+04
 2.6731000e+00   1.2846983e+04
 2.6777799e+00   1.2893453e+04
 2.6824601e+00   1.2850211e+04
 2.6871400e+00   1.2870093e+04
 2.6918199e+00   1.2889894e+04
 2.6965001e+00   1.2883699e+04
 2.7011800e+00   1.2913542e+04
 2.7058599e+00   1.2916934e+04
 2.7105401e+00   1.2929540e+04
 2.7152200e+00   1.2954511e+04
 2.7198999e+00   1.2955184e+04
 2.7245800e+00   1.2945321e+04
 2.7292600e+00   1.2949291e+04
 2.7339399e+00   1.2956531e+04
 2.7386200e+00   1.2935019e+04
 2.7433000e+00   1.2947047e+04
 2.7479801e+00   1.2937654e+04
 2.7526600e+00   1.2928487e+04
 2.7573400e+00   1.2894163e+04
 2.7620201e+00   1.2913167e+04
 2.7667000e+00   1.2911766e+04
 2.7713799e+00   1.2900381e+04
 2.7760601e+00   1.2893311e+04
 2.7807400e+00   1.2895641e+04
 2.7854199e+00   1.2873041e+04
 2.7901001e+00   1.2899671e+04
 2.7947800e+00   1.2851851e+04
 2.7994599e+00   1.2859449e+04
 2.8041401e+00   1.2853016e+04
 2.8088200e+00   1.2857882e+04
 2.8134999e+00   1.2819846e+04
 2.8181801e+00   1.2818731e+04
 2.8228600e+00   1.2794056e+04
 2.8275399e+00   1.2788074e+04
 2.8322201e+00   1.2775727e+04
 2.8369000e+00   1.2772825e+04
 2.8415799e+00   1.2745505e+04
 2.8462601e+00   1.2734422e+04
 2.8509400e+00   1.2686447e+04
 2.8556199e+00   1.2709563e+04
 2.8603001e+00   1.2663190e+04
 2.8649800e+00   1.2648535e+04
 2.8696599e+00   1.2629888e+04
 2.8743401e+00   1.2622028e+04
 2.8790200e+00   1.2616444e+04
 2.8836999e+00   1.2575019e+04
 2.8883801e+00   1.2563026e+04
 2.8930600e+00   1.2555648e+04
 2.8977399e+00   1.2536327e+04
 2.9024200e+00   1.2528545e+04
 2.9071000e+00   1.2516457e+04
 2.9117801e+00   1.2485801e+04
 2.9164600e+00   1.2475644e+04
 2.9211400e+00   1.2426491e+04
 2.9258201e+00   1.2439198e+04
 2.9305000e+00   1.2415010e+04
 2.9351799e+00   1.2390287e+04
 2.9398601e+00   1.2383403e+04
 2.9445400e+00   1.2349412e+04
 2.9492199e+00   1.2339254e+04
 2.9539001e+00   1.2320035e+04
 2.9585800e+00   1.2291964e+04
 2.9632599e+00   1.2255990e+04
 2.9679401e+00   1.2233710e+04
 2.9726200e+00   1.2223567e+04
 2.9772999e+00   1.2197848e+04
 2.9819801e+00   1.2187877e+04
 2.9866600e+00   1.2149305e+04
 2.9913399e+00   1.2112117e+04
 2.9960201e+00   1.2100606e+04
 3.0007000e+00   1.2059419e+04
 3.0053799e+00   1.2045440e+04
 3.0100601e+00   1.2023295e+04
 3.0147400e+00   1.1997260e+04
 3.0194199e+00   1.1968942e+04
 3.0241001e+00   1.1957211e+04
 3.0287800e+00   1.1929637e+04
 3.0334599e+00   1.1898004e+04
 3.0381401e+00   1.1886864e+04
 3.0428200e+00   1.1851576e+04
 3.0474999e+00   1.1804440e+04
 3.0521801e+00   1.1787096e+04
 3.0568600e+00   1.1752558e+04
 3.0615399e+00   1.1728274e+04
 3.0662200e+00   1.1688349e+04
 3.0709000e+00   1.1675472e+04
 3.0755799e+00   1.1620658e+04
 3.0802600e+00   1.1617966e+04
 3.0849400e+00   1.1583605e+04
 3.0896201e+00   1.1569186e+04
 3.0943000e+00   1.1536499e+04
 3.0989799e+00   1.1523494e+04
 3.1036601e+00   1.1503519e+04
 3.1083400e+00   1.1489331e+04
 3.1130199e+00   1.1445606e+04
 3.1177001e+00   1.1444380e+04
 3.1223800e+00   1.1411286e+04
 3.1270599e+00   1.1400020e+04
 3.1317401e+00   1.1379784e+04
 3.1364200e+00   1.1332666e+04
 3.1410999e+00   1.1308001e+04
 3.1457801e+00   1.1295375e+04
 3.1504600e+00   1.1283825e+04
 3.1551399e+00   1.1268923e+04
 3.1598201e+00   1.1249362e+04
 3.1645000e+00   1.1225414e+04
 3.1691799e+00   1.1214249e+04
 3.1738601e+00   1.1198816e+04
 3.1785400e+00   1.1174052e+04
 3.1832199e+00   1.1178516e+04
 3.1879001e+00   1.1148447e+04
 3.1925800e+00   1.1131335e+04
 3.1972599e+00   1.1133549e+04
 3.2019401e+00   1.1094273e+04
 3.2066200e+00   1.1098682e+04
 3.2112999e+00   1.1094990e+04
 3.2159801e+00   1.1047577e+04
 3.2206600e+00   1.1055393e+04
 3.2253399e+00   1.1032507e+04
 3.2300200e+00   1.1012066e+04
 3.2347000e+00   1.1006590e+04
 3.2393799e+00   1.0988261e+04
 3.2440600e+00   1.0960136e+04
 3.2487400e+00   1.0942958e+04
 3.2534201e+00   1.0932274e+04
 3.2581000e+00   1.0932081e+04
 3.2627800e+00   1.0915060e+04
 3.2674601e+00   1.0908424e+04
 3.2721400e+00   1.0914100e+04
 3.2768199e+00   1.0908854e+04
 3.2815001e+00   1.0857676e+04
 3.2861800e+00   1.0892751e+04
 3.2908599e+00   1.0860461e+04
 3.2955401e+00   1.0865353e+04
 3.3002200e+00   1.0852243e+04
 3.3048999e+00   1.0827681e+04
 3.3095801e+00   1.0845835e+04
 3.3142600e+00   1.0844519e+04
 3.3189399e+00   1.0832229e+04
 3.3236201e+00   1.0839683e+04
 3.3283000e+00   1.0834093e+04
 3.3329799e+00   1.0803179e+04
 3.3376601e+00   1.0836279e+04
 3.3423400e+00   1.0796427e+04
 3.3470199e+00   1.0806219e+04
 3.3517001e+00   1.0813471e+04
 3.3563800e+00   1.0785872e+04
 3.3610599e+00   1.0801348e+04
 3.3657401e+00   1.0792271e+04
 3.3704200e+00   1.0787674e+04
 3.3750999e+00   1.0801853e+04
 3.3797801e+00   1.0779687e+04
 3.3844600e+00   1.0770574e+04
 3.3891399e+00   1.0801941e+04
 3.3938200e+00   1.0774598e+04
 3.3985000e+00   1.0813593e+04
 3.4031799e+00   1.0784495e+04
 3.4078600e+00   1.0775239e+04
 3.4125400e+00   1.0822242e+04
 3.4172201e+00   1.0807897e+04
 3.4219000e+00   1.0790850e+04
 3.4265800e+00   1.0835374e+04
 3.4312601e+00   1.0792136e+04
 3.4359400e+00   1.0817832e+04
 3.4406199e+00   1.0814229e+04
 3.4453001e+00   1.0815274e+04
 3.4499800e+00   1.0814853e+04
 3.4546599e+00   1.0829893e+04
 3.4593401e+00   1.0799178e+04
 3.4640200e+00   1.0829022e+04
 3.4686999e+00   1.0809603e+04
 3.4733801e+00   1.0808766e+04
 3.4780600e+00   1.0820476e+04
 3.4827399e+00   1.0801745e+04
 3.4874201e+00   1.0827897e+04
 3.4921000e+00   1.0832714e+04
 3.4967799e+00   1.0802637e+04
 3.5014601e+00   1.0822071e+04
 3.5061400e+00   1.0808211e+04
 3.5108199e+00   1.0767446e+04
 3.5155001e+00   1.0826870e+04
 3.5201800e+00   1.0786976e+04
 3.5248599e+00   1.0815724e+04
 3.5295401e+00   1.0810528e+04
 3.5342200e+00   1.0787476e+04
 3.5388999e+00   1.0797322e+04
 3.5435801e+00   1.0831338e+04
 3.5482600e+00   1.0754899e+04
 3.5529399e+00   1.0853269e+04
 3.5576200e+00   1.0799014e+04
 3.5623000e+00   1.0777068e+04
 3.5669799e+00   1.0822652e+04
 3.5716600e+00   1.0799495e+04
 3.5763400e+00   1.0801914e+04
 3.5810201e+00   1.0850673e+04
 3.5857000e+00   1.0780855e+04
 3.5903800e+00   1.0814591e+04
 3.5950601e+00   1.0829497e+04
 3.5997400e+00   1.0766389e+04
 3.6044199e+00   1.0814463e+04
 3.6091001e+00   1.0794485e+04
 3.6137800e+00   1.0763206e+04
 3.6184599e+00   1.0838019e+04
 3.6231401e+00   1.0775515e+04
 3.6278200e+00   1.0758489e+04
 3.6324999e+00   1.0821465e+04
 3.6371801e+00   1.0722158e+04
 3.6418600e+00   1.0806972e+04
 3.6465399e+00   1.0784779e+04
 3.6512201e+00   1.0709880e+04
 3.6559000e+00   1.0806258e+04
 3.6605799e+00   1.0705202e+04
 3.6652601e+00   1.0708424e+04
 3.6699400e+00   1.0761970e+04
 3.6746199e+00   1.0635209e+04
 3.6793001e+00   1.0634553e+04
 3.6839800e+00   1.0692533e+04
 3.6886599e+00   1.0572384e+04
 3.6933401e+00   1.0684816e+04
 3.6980200e+00   1.0579198e+04
 3.7026999e+00   1.0536399e+04
 3.7073801e+00   1.0624039e+04
 3.7120600e+00   1.0546241e+04
 3.7167399e+00   1.0485828e+04
 3.7214200e+00   1.0533311e+04
 3.7261000e+00   1.0348143e+04
 3.7307799e+00   1.0409417e+04
 3.7354600e+00   1.0375649e+04
 3.7401400e+00   1.0251200e+04
 3.7448201e+00   1.0305667e+04
 3.7495000e+00   1.0250197e+04
 3.7541800e+00   1.0139687e+04
 3.7588601e+00   1.0193093e+04
 3.7635400e+00   1.0072169e+04
 3.7682199e+00   1.0041876e+04
 3.7729001e+00   1.0011265e+04
 3.7775800e+00   9.9177556e+03
 3.7822599e+00   9.8763303e+03
 3.7869401e+00   9.9194567e+03
 3.7916200e+00   9.7189346e+03
 3.7962999e+00   9.9092925e+03
 3.8009801e+00   9.7624752e+03
 3.8056600e+00   9.7087248e+03
 3.8103399e+00   9.7802576e+03
 3.8150201e+00   9.6491894e+03
 3.8197000e+00   9.6726939e+03
 3.8243799e+00   9.7242611e+03
 3.8290601e+00   9.6025960e+03
 3.8337400e+00   9.6491719e+03
 3.8384199e+00   9.6303948e+03
 3.8431001e+00   9.4665336e+03
 3.8477800e+00   9.6195832e+03
 3.8524599e+00   9.5164159e+03
 3.8571401e+00   9.4679341e+03
 3.8618200e+00   9.4391396e+03
 3.8664999e+00   9.3797336e+03
 3.8711801e+00   9.4214578e+03
 3.8758600e+00   9.3721652e+03
 3.8805399e+00   9.2594142e+03
 3.8852201e+00   9.3870282e+03
 3.8899000e+00   9.2435397e+03
 3.8945799e+00   9.1814112e+03
 3.8992600e+00   9.2280750e+03
 3.9039400e+00   9.1698081e+03
 3.9086201e+00   9.0974163e+03
 3.9133000e+00   9.1418930e+03
 3.9179800e+00   9.0117945e+03
 3.9226601e+00   9.0746103e+03
 3.9273400e+00   9.0396886e+03
 3.9320199e+00   8.9399677e+03
 3.9367001e+00   8.9676302e+03
 3.9413800e+00   8.9574815e+03
 3.9460599e+00   8.8906434e+03
 3.9507401e+00   8.9355840e+03
 3.9554200e+00   8.8775832e+03
 3.9600999e+00   8.8215199e+03
 3.9647801e+00   8.8189462e+03
 3.9694600e+00   8.7836665e+03
 3.9741399e+00   8.7734554e+03
 3.9788201e+00   8.8014491e+03
 3.9835000e+00   8.7158259e+03
 3.9881799e+00   8.7008829e+03
 3.9928601e+00   8.6503860e+03
 3.9975400e+00   8.6257898e+03
 4.0022202e+00   8.6995370e+03
 4.0068998e+00   8.5636126e+03
 4.0115800e+00   8.6289461e+03
 4.0162601e+00   8.5753200e+03
 4.0209398e+00   8.4956419e+03
 4.0256200e+00   8.5159281e+03
 4.0303001e+00   8.5206250e+03
 4.0349798e+00   8.4527756e+03
 4.0396600e+00   8.5248374e+03
 4.0443401e+00   8.3808064e+03
 4.0490198e+00   8.4203894e+03
 4.0537000e+00   8.4242226e+03
 4.0583801e+00   8.3582748e+03
 4.0630598e+00   8.3836680e+03
 4.0677400e+00   8.4031496e+03
 4.0724201e+00   8.2865436e+03
 4.0770998e+00   8.3437953e+03
 4.0817800e+00   8.2922323e+03
 4.0864601e+00   8.2683591e+03
 4.0911398e+00   8.3426004e+03
 4.0958200e+00   8.1903995e+03
 4.1005001e+00   8.2317757e+03
 4.1051798e+00   8.2258605e+03
 4.1098599e+00   8.2061485e+03
 4.1145401e+00   8.2191975e+03
 4.1192198e+00   8.2061766e+03
 4.1238999e+00   8.1089956e+03
 4.1285801e+00   8.2247834e+03
 4.1332598e+00   8.0930453e+03
 4.1379399e+00   8.1516436e+03
 4.1426201e+00   8.1165576e+03
 4.1472998e+00   8.0569142e+03
 4.1519799e+00   8.0844365e+03
 4.1566601e+00   8.0805474e+03
 4.1613402e+00   7.9421400e+03
 4.1660199e+00   8.1069528e+03
 4.1707001e+00   7.9779000e+03
 4.1753802e+00   7.9844055e+03
 4.1800599e+00   8.0106203e+03
 4.1847401e+00   7.9479069e+03
 4.1894202e+00   8.0083812e+03
 4.1940999e+00   8.0023278e+03
 4.1987801e+00   7.9247384e+03
 4.2034602e+00   8.0119783e+03
 4.2081399e+00   7.9565131e+03
 4.2128201e+00   7.9438882e+03
 4.2175002e+00   8.0808543e+03
 4.2221799e+00   7.9593377e+03
 4.2268600e+00   7.9680670e+03
 4.2315402e+00   8.0295740e+03
 4.2362199e+00   7.9349733e+03
 4.2409000e+00   8.0318907e+03
 4.2455802e+00   8.0658633e+03
 4.2502599e+00   8.0447198e+03
 4.2549400e+00   8.1918032e+03
 4.2596202e+00   8.2092160e+03
 4.2642999e+00   8.3528815e+03
 4.2689800e+00   8.5229464e+03
 4.2736602e+00   8.7875913e+03
 4.2783399e+00   9.0048095e+03
 4.2830200e+00   9.2219943e+03
 4.2877002e+00   9.3416538e+03
 4.2923799e+00   9.5821958e+03
 4.2970600e+00   9.6722013e+03
 4.3017402e+00   9.6426804e+03
 4.3064198e+00   9.6859358e+03
 4.3111000e+00   9.5790055e+03
 4.3157802e+00   9.5066160e+03
 4.3204598e+00   9.3870590e+03
 4.3251400e+00   9.1665802e+03
 4.3298202e+00   9.1244353e+03
 4.3344998e+00   8.9579134e+03
 4.3391800e+00   8.9006653e+03
 4.3438601e+00   8.8484592e+03
 4.3485398e+00   8.7656237e+03
 4.3532200e+00   8.6810074e+03
 4.3579001e+00   8.6792681e+03
 4.3625798e+00   8.5295607e+03
 4.3672600e+00   8.4937689e+03
 4.3719401e+00   8.3889719e+03
 4.3766198e+00   8.3175760e+03
 4.3813000e+00   8.2674317e+03
 4.3859801e+00   8.1746919e+03
 4.3906598e+00   8.0857382e+03
 4.3953400e+00   8.0638571e+03
 4.4000201e+00   7.9624780e+03
 4.4046998e+00   7.9507324e+03
 4.4093800e+00   7.8751570e+03
 4.4140601e+00   7.8314846e+03
 4.4187398e+00   7.8214213e+03
 4.4234200e+00   7.7670991e+03
 4.4281001e+00   7.6743864e+03
 4.4327798e+00   7.7781986e+03
 4.4374599e+00   7.6698582e+03
 4.4421401e+00   7.6823895e+03
 4.4468198e+00   7.6637866e+03
 4.4514999e+00   7.5922324e+03
 4.4561801e+00   7.5979618e+03
 4.4608598e+00   7.5877565e+03
 4.4655399e+00   7.5378246e+03
 4.4702201e+00   7.5678740e+03
 4.4748998e+00   7.5351299e+03
 4.4795799e+00   7.4859529e+03
 4.4842601e+00   7.5394175e+03
 4.4889398e+00   7.4583499e+03
 4.4936199e+00   7.4536790e+03
 4.4983001e+00   7.4095731e+03
 4.5029802e+00   7.3573157e+03
 4.5076599e+00   7.3382950e+03
 4.5123401e+00   7.3183920e+03
 4.5170202e+00   7.2278615e+03
 4.5216999e+00   7.2468894e+03
 4.5263801e+00   7.1646742e+03
 4.5310602e+00   7.1728654e+03
 4.5357399e+00   7.1511739e+03
 4.5404201e+00   7.1117631e+03
 4.5451002e+00   7.1067031e+03
 4.5497799e+00   7.0883806e+03
 4.5544600e+00   7.0550023e+03
 4.5591402e+00   7.0694766e+03
 4.5638199e+00   7.0416961e+03
 4.5685000e+00   6.9987362e+03
 4.5731802e+00   7.0134773e+03
 4.5778599e+00   6.9914802e+03
 4.5825400e+00   6.9898435e+03
 4.5872202e+00   6.9679417e+03
 4.5918999e+00   6.9440675e+03
 4.5965800e+00   6.9212961e+03
 4.6012602e+00   6.8953445e+03
 4.6059399e+00   6.8958441e+03
 4.6106200e+00   6.8753188e+03
 4.6153002e+00   6.8663097e+03
 4.6199799e+00   6.8316226e+03
 4.6246600e+00   6.8280535e+03
 4.6293402e+00   6.8132520e+03
 4.6340199e+00   6.7938551e+03
 4.6387000e+00   6.8007689e+03
 4.6433802e+00   6.7697096e+03
 4.6480598e+00   6.7633751e+03
 4.6527400e+00   6.7440154e+03
 4.6574202e+00   6.7304049e+03
 4.6620998e+00   6.7464573e+03
 4.6667800e+00   6.7343974e+03
 4.6714602e+00   6.7212205e+03
 4.6761398e+00   6.6925435e+03
 4.6808200e+00   6.6796294e+03
 4.6855001e+00   6.6912042e+03
 4.6901798e+00   6.6787233e+03
 4.6948600e+00   6.6762131e+03
 4.6995401e+00   6.6611762e+03
 4.7042198e+00   6.6845611e+03
 4.7089000e+00   6.6797570e+03
 4.7135801e+00   6.7167500e+03
 4.7182598e+00   6.7248290e+03
 4.7229400e+00   6.7911062e+03
 4.7276201e+00   6.7857543e+03
 4.7322998e+00   6.8440007e+03
 4.7369800e+00   6.8913072e+03
 4.7416601e+00   6.9265250e+03
 4.7463398e+00   6.9452107e+03
 4.7510200e+00   7.0048394e+03
 4.7557001e+00   7.0503397e+03
 4.7603798e+00   7.1072051e+03
 4.7650599e+00   7.1710460e+03
 4.7697401e+00   7.2444814e+03
 4.7744198e+00   7.3611487e+03
 4.7790999e+00   7.4851870e+03
 4.7837801e+00   7.6113437e+03
 4.7884598e+00   7.8058843e+03
 4.7931399e+00   7.9754804e+03
 4.7978201e+00   8.1700959e+03
 4.8024998e+00   8.4023915e+03
 4.8071799e+00   8.6199708e+03
 4.8118601e+00   8.8094921e+03
 4.8165398e+00   8.9847745e+03
 4.8212199e+00   9.1894736e+03
 4.8259001e+00   9.3178092e+03
 4.8305802e+00   9.4350715e+03
 4.8352599e+00   9.4893885e+03
 4.8399401e+00   9.4853852e+03
 4.8446202e+00   9.3364403e+03
 4.8492999e+00   9.1755375e+03
 4.8539801e+00   8.9223405e+03
 4.8586602e+00   8.6440215e+03
 4.8633399e+00   8.3529314e+03
 4.8680201e+00   8.0811405e+03
 4.8727002e+00   7.8266993e+03
 4.8773799e+00   7.6354164e+03
 4.8820601e+00   7.5107122e+03
 4.8867402e+00   7.4040901e+03
 4.8914199e+00   7.3852190e+03
 4.8961000e+00   7.3832681e+03
 4.9007802e+00   7.4110169e+03
 4.9054599e+00   7.4899245e+03
 4.9101400e+00   7.5558658e+03
 4.9148202e+00   7.6263083e+03
 4.9194999e+00   7.7075227e+03
 4.9241800e+00   7.7909716e+03
 4.9288602e+00   7.8879791e+03
 4.9335399e+00   7.9570407e+03
 4.9382200e+00   8.0695625e+03
 4.9429002e+00   8.1635742e+03
 4.9475799e+00   8.3334426e+03
 4.9522600e+00   8.4617874e+03
 4.9569402e+00   8.6472357e+03
 4.9616199e+00   8.8424359e+03
 4.9663000e+00   9.0602052e+03
 4.9709802e+00   9.2715640e+03
 4.9756598e+00   9.4825993e+03
 4.9803400e+00   9.6757582e+03
 4.9850202e+00   9.7970051e+03
 4.9896998e+00   9.8946727e+03
 4.9943800e+00   9.9477888e+03
 4.9990602e+00   9.9059479e+03
 5.0037398e+00   9.7807736e+03
 5.0084200e+00   9.5905338e+03
 5.0131001e+00   9.3361489e+03
 5.0177798e+00   9.0478748e+03
 5.0224600e+00   8.7321306e+03
 5.0271401e+00   8.4145235e+03
 5.0318198e+00   8.1168242e+03
 5.0365000e+00   7.8589698e+03
 5.0411801e+00   7.5917819e+03
 5.0458598e+00   7.3953750e+03
 5.0505400e+00   7.2130759e+03
 5.0552201e+00   7.0922266e+03
 5.0598998e+00   6.9666222e+03
 5.0645800e+00   6.9153216e+03
 5.0692601e+00   6.8833073e+03
 5.0739398e+00   6.8802271e+03
 5.0786200e+00   6.9360294e+03
 5.0833001e+00   7.0752150e+03
 5.0879798e+00   7.1764004e+03
 5.0926600e+00   7.5667515e+03
 5.0973401e+00   7.8278409e+03
 5.1020198e+00   8.2887594e+03
 5.1066999e+00   9.5532580e+03
 5.1113801e+00   1.0516537e+04
 5.1160598e+00   1.2888716e+04
 5.1207399e+00   1.7336412e+04
 5.1254201e+00   2.1221265e+04
 5.1300998e+00   3.0993328e+04
 5.1347799e+00   3.9636814e+04
 5.1394601e+00   4.3785497e+04
 5.1441398e+00   5.1254050e+04
 5.1488199e+00   4.7448236e+04
 5.1535001e+00   4.1646191e+04
 5.1581802e+00   3.6264490e+04
 5.1628599e+00   2.6222458e+04
 5.1675401e+00   1.9427154e+04
 5.1722202e+00   1.4882309e+04
 5.1768999e+00   1.0998410e+04
 5.1815801e+00   9.4439711e+03
 5.1862602e+00   8.1000005e+03
 5.1909399e+00   7.3780831e+03
 5.1956201e+00   7.1305178e+03
 5.2003002e+00   6.7872323e+03
 5.2049799e+00   6.6083541e+03
 5.2096601e+00   6.5085549e+03
 5.2143402e+00   6.3907173e+03
 5.2190199e+00   6.3224774e+03
 5.2237000e+00   6.2674561e+03
 5.2283802e+00   6.1825978e+03
 5.2330599e+00   6.1591917e+03
 5.2377400e+00   6.1204668e+03
 5.2424202e+00   6.0833609e+03
 5.2470999e+00   6.0710073e+03
 5.2517800e+00   6.0369269e+03
 5.2564602e+00   6.0122382e+03
 5.2611399e+00   6.0086170e+03
 5.2658200e+00   5.9745656e+03
 5.2705002e+00   5.9801481e+03
 5.2751799e+00   5.9609207e+03
 5.2798600e+00   5.9567655e+03
 5.2845402e+00   5.9364562e+03
 5.2892199e+00   5.9307826e+03
 5.2939000e+00   5.9309172e+03
 5.2985802e+00   5.9317142e+03
 5.3032598e+00   5.9049415e+03
 5.3079400e+00   5.9292975e+03
 5.3126202e+00   5.9015745e+03
 5.3172998e+00   5.9068495e+03
 5.3219800e+00   5.9100851e+03
 5.3266602e+00   5.8925505e+03
 5.3313398e+00   5.8834291e+03
 5.3360200e+00   5.8774629e+03
 5.3407001e+00   5.8657243e+03
 5.3453798e+00   5.8591689e+03
 5.3500600e+00   5.8677511e+03
 5.3547401e+00   5.8621504e+03
 5.3594198e+00   5.8650797e+03
 5.3641000e+00   5.8538031e+03
 5.3687801e+00   5.8599934e+03
 5.3734598e+00   5.8537975e+03
 5.3781400e+00   5.8572144e+03
 5.3828201e+00   5.8555055e+03
 5.3874998e+00   5.8574202e+03
 5.3921800e+00   5.8588997e+03
 5.3968601e+00   5.8781585e+03
 5.4015398e+00   5.8647049e+03
 5.4062200e+00   5.8881649e+03
 5.4109001e+00   5.8808305e+03
 5.4155798e+00   5.8789141e+03
 5.4202600e+00   5.9028676e+03
 5.4249401e+00   5.9043495e+03
 5.4296198e+00   5.9210152e+03
 5.4342999e+00   5.9445264e+03
 5.4389801e+00   5.9440288e+03
 5.4436598e+00   5.9563093e+03
 5.4483399e+00   5.9629640e+03
 5.4530201e+00   5.9933691e+03
 5.4576998e+00   6.0100932e+03
 5.4623799e+00   6.0397405e+03
 5.4670601e+00   6.0588193e+03
 5.4717398e+00   6.1162525e+03
 5.4764199e+00   6.1535239e+03
 5.4811001e+00   6.2062946e+03
 5.4857798e+00   6.2756913e+03
 5.4904599e+00   6.3431776e+03
 5.4951401e+00   6.4299915e+03
 5.4998202e+00   6.5273522e+03
 5.5044999e+00   6.6565644e+03
 5.5091801e+00   6.8345629e+03
 5.5138602e+00   7.0171298e+03
 5.5185399e+00   7.2423594e+03
 5.5232201e+00   7.5278193e+03
 5.5279002e+00   7.8332825e+03
 5.5325799e+00   8.2585251e+03
 5.5372601e+00   8.6495309e+03
 5.5419402e+00   9.1350105e+03
 5.5466199e+00   9.5484132e+03
 5.5513000e+00   9.9637770e+03
 5.5559802e+00   1.0317092e+04
 5.5606599e+00   1.0571245e+04
 5.5653400e+00   1.0686425e+04
 5.5700202e+00   1.0739988e+04
 5.5746999e+00   1.0673985e+04
 5.5793800e+00   1.0519335e+04
 5.5840602e+00   1.0315076e+04
 5.5887399e+00   1.0050783e+04
 5.5934200e+00   9.7618188e+03
 5.5981002e+00   9.4572231e+03
 5.6027799e+00   9.1415085e+03
 5.6074600e+00   8.8567911e+03
 5.6121402e+00   8.5787586e+03
 5.6168199e+00   8.3218171e+03
 5.6215000e+00   8.0927133e+03
 5.6261802e+00   7.8488692e+03
 5.6308599e+00   7.6529209e+03
 5.6355400e+00   7.4823321e+03
 5.6402202e+00   7.3066179e+03
 5.6448998e+00   7.1710624e+03
 5.6495800e+00   7.0362472e+03
 5.6542602e+00   6.9118247e+03
 5.6589398e+00   6.8058716e+03
 5.6636200e+00   6.7041767e+03
 5.6683002e+00   6.6291881e+03
 5.6729798e+00   6.5379736e+03
 5.6776600e+00   6.4595427e+03
 5.6823401e+00   6.3891491e+03
 5.6870198e+00   6.3525553e+03
 5.6917000e+00   6.2750719e+03
 5.6963801e+00   6.2537619e+03
 5.7010598e+00   6.2076821e+03
 5.7057400e+00   6.1844522e+03
 5.7104201e+00   6.1714823e+03
 5.7150998e+00   6.1412626e+03
 5.7197800e+00   6.1174466e+03
 5.7244601e+00   6.1279288e+03
 5.7291398e+00   6.1182227e+03
 5.7338200e+00   6.1086979e+03
 5.7385001e+00   6.1145817e+03
 5.7431798e+00   6.1005841e+03
 5.7478600e+00   6.1224120e+03
 5.7525401e+00   6.1237568e+03
 5.7572198e+00   6.1536337e+03
 5.7618999e+00   6.1711662e+03
 5.7665801e+00   6.1458092e+03
 5.7712598e+00   6.1456636e+03
 5.7759399e+00   6.1561701e+03
 5.7806201e+00   6.1334900e+03
 5.7852998e+00   6.1281120e+03
 5.7899799e+00   6.1146312e+03
 5.7946601e+00   6.1100982e+03
 5.7993398e+00   6.1008613e+03
 5.8040199e+00   6.1052829e+03
 5.8087001e+00   6.1052342e+03
 5.8133798e+00   6.1093862e+03
 5.8180599e+00   6.0979762e+03
 5.8227401e+00   6.1261250e+03
 5.8274202e+00   6.1375629e+03
 5.8320999e+00   6.1378269e+03
 5.8367801e+00   6.1666952e+03
 5.8414602e+00   6.1918551e+03
 5.8461399e+00   6.2101208e+03
 5.8508201e+00   6.2437544e+03
 5.8555002e+00   6.2716226e+03
 5.8601799e+00   6.3266131e+03
 5.8648601e+00   6.3872627e+03
 5.8695402e+00   6.4210758e+03
 5.8742199e+00   6.4911388e+03
 5.8789001e+00   6.5603709e+03
 5.8835802e+00   6.6787515e+03
 5.8882599e+00   6.7636068e+03
 5.8929400e+00   6.8835865e+03
 5.8976202e+00   7.0676852e+03
 5.9022999e+00   7.2919722e+03
 5.9069800e+00   7.6128013e+03
 5.9116602e+00   8.1085828e+03
 5.9163399e+00   8.7217540e+03
 5.9210200e+00   9.6457085e+03
 5.9257002e+00   1.0922521e+04
 5.9303799e+00   1.2501804e+04
 5.9350600e+00   1.3918676e+04
 5.9397402e+00   1.4719708e+04
 5.9444199e+00   1.4913641e+04
 5.9491000e+00   1.4662027e+04
 5.9537802e+00   1.3844079e+04
 5.9584599e+00   1.2742561e+04
 5.9631400e+00   1.1598429e+04
 5.9678202e+00   1.0803949e+04
 5.9724998e+00   1.0188659e+04
 5.9771800e+00   9.8159866e+03
 5.9818602e+00   9.5694775e+03
 5.9865398e+00   9.3945842e+03
 5.9912200e+00   9.1844115e+03
 5.9959002e+00   8.9998142e+03
 6.0005798e+00   8.8189812e+03
 6.0052600e+00   8.5767192e+03
 6.0099401e+00   8.3802416e+03
 6.0146198e+00   8.1318118e+03
 6.0193000e+00   7.9059047e+03
 6.0239801e+00   7.7224514e+03
 6.0286598e+00   7.4996087e+03
 6.0333400e+00   7.3072689e+03
 6.0380201e+00   7.1714575e+03
 6.0426998e+00   6.9955518e+03
 6.0473800e+00   6.8604305e+03
 6.0520601e+00   6.7552076e+03
 6.0567398e+00   6.6065791e+03
 6.0614200e+00   6.5494042e+03
 6.0661001e+00   6.4505161e+03
 6.0707798e+00   6.3721568e+03
 6.0754600e+00   6.3312796e+03
 6.0801401e+00   6.2718031e+03
 6.0848198e+00   6.2162668e+03
 6.0895000e+00   6.1948403e+03
 6.0941801e+00   6.1277141e+03
 6.0988598e+00   6.1216376e+03
 6.1035399e+00   6.0981117e+03
 6.1082201e+00   6.0489043e+03
 6.1128998e+00   6.0541702e+03
 6.1175799e+00   6.0190065e+03
 6.1222601e+00   6.0055237e+03
 6.1269398e+00   5.9950152e+03
 6.1316199e+00   5.9863396e+03
 6.1363001e+00   5.9858088e+03
 6.1409798e+00   5.9615063e+03
 6.1456599e+00   5.9612526e+03
 6.1503401e+00   5.9617774e+03
 6.1550202e+00   5.9532945e+03
 6.1596999e+00   5.9588811e+03
 6.1643801e+00   5.9516151e+03
 6.1690602e+00   5.9389914e+03
 6.1737399e+00   5.9239772e+03
 6.1784201e+00   5.9420902e+03
 6.1831002e+00   5.9185100e+03
 6.1877799e+00   5.9345999e+03
 6.1924601e+00   5.9222815e+03
 6.1971402e+00   5.9253054e+03
 6.2018199e+00   5.9257163e+03
 6.2065001e+00   5.9454793e+03
 6.2111802e+00   5.9157663e+03
 6.2158599e+00   5.9441381e+03
 6.2205400e+00   5.9203301e+03
 6.2252202e+00   5.9401131e+03
 6.2298999e+00   5.9645571e+03
 6.2345800e+00   5.9185852e+03
 6.2392602e+00   5.9345327e+03
 6.2439399e+00   5.9320308e+03
 6.2486200e+00   5.9309206e+03
 6.2533002e+00   5.9297605e+03
 6.2579799e+00   5.9437935e+03
 6.2626600e+00   5.9494979e+03
 6.2673402e+00   5.9516501e+03
 6.2720199e+00   5.9326110e+03
 6.2767000e+00   5.9558955e+03
 6.2813802e+00   5.9411036e+03
 6.2860599e+00   5.9282104e+03
 6.2907400e+00   5.9528054e+03
 6.2954202e+00   5.9560873e+03
 6.3000998e+00   5.9368453e+03
 6.3047800e+00   5.9803496e+03
 6.3094602e+00   5.9555753e+03
 6.3141398e+00   5.9688239e+03
 6.3188200e+00   5.9680212e+03
 6.3235002e+00   5.9695749e+03
 6.3281798e+00   6.0041140e+03
 6.3328600e+00   5.9844062e+03
 6.3375401e+00   6.0102324e+03
 6.3422198e+00   6.0020083e+03
 6.3469000e+00   5.9889182e+03
 6.3515801e+00   5.9829158e+03
 6.3562598e+00   6.0215225e+03
 6.3609400e+00   5.9895498e+03
 6.3656201e+00   6.0285649e+03
 6.3702998e+00   5.9979510e+03
 6.3749800e+00   6.0100987e+03
 6.3796601e+00   5.9971317e+03
 6.3843398e+00   6.0119937e+03
 6.3890200e+00   6.0067940e+03
 6.3937001e+00   6.0341756e+03
 6.3983798e+00   5.9981142e+03
 6.4030600e+00   6.0161822e+03
 6.4077401e+00   6.0294980e+03
 6.4124198e+00   6.0304715e+03
 6.4171000e+00   6.0494113e+03
 6.4217801e+00   6.0245447e+03
 6.4264598e+00   6.0482084e+03
 6.4311399e+00   6.0511043e+03
 6.4358201e+00   6.0628840e+03
 6.4404998e+00   6.0700251e+03
 6.4451799e+00   6.1120203e+03
 6.4498601e+00   6.0614327e+03
 6.4545398e+00   6.0858262e+03
 6.4592199e+00   6.0618190e+03
 6.4639001e+00   6.0777105e+03
 6.4685798e+00   6.1106661e+03
 6.4732599e+00   6.0627416e+03
 6.4779401e+00   6.0900937e+03
 6.4826198e+00   6.0874736e+03
 6.4872999e+00   6.0846030e+03
 6.4919801e+00   6.1025242e+03
 6.4966602e+00   6.1391016e+03
 6.5013399e+00   6.0762850e+03
 6.5060201e+00   6.1465062e+03
 6.5107002e+00   6.0987390e+03
 6.5153799e+00   6.1263271e+03
 6.5200601e+00   6.1319719e+03
 6.5247402e+00   6.1334584e+03
 6.5294199e+00   6.1299672e+03
 6.5341001e+00   6.1431619e+03
 6.5387802e+00   6.1415876e+03
 6.5434599e+00   6.1724866e+03
 6.5481400e+00   6.1841776e+03
 6.5528202e+00   6.1869106e+03
 6.5574999e+00   6.1869207e+03
 6.5621800e+00   6.1763406e+03
 6.5668602e+00   6.2181882e+03
 6.5715399e+00   6.2443772e+03
 6.5762200e+00   6.2133102e+03
 6.5809002e+00   6.2464097e+03
 6.5855799e+00   6.2479093e+03
 6.5902600e+00   6.2293872e+03
 6.5949402e+00   6.2670320e+03
 6.5996199e+00   6.2310026e+03
 6.6043000e+00   6.2678332e+03
 6.6089802e+00   6.2746215e+03
 6.6136599e+00   6.2661050e+03
 6.6183400e+00   6.2911952e+03
 6.6230202e+00   6.2979283e+03
 6.6276999e+00   6.3058590e+03
 6.6323800e+00   6.3393024e+03
 6.6370602e+00   6.3333959e+03
 6.6417398e+00   6.3307519e+03
 6.6464200e+00   6.4003616e+03
 6.6511002e+00   6.3569441e+03
 6.6557798e+00   6.4067990e+03
 6.6604600e+00   6.4058124e+03
 6.6651402e+00   6.4349247e+03
 6.6698198e+00   6.4050817e+03
 6.6745000e+00   6.4402926e+03
 6.6791801e+00   6.4217699e+03
 6.6838598e+00   6.4865319e+03
 6.6885400e+00   6.4182917e+03
 6.6932201e+00   6.4938033e+03
 6.6978998e+00   6.4456195e+03
 6.7025800e+00   6.4858833e+03
 6.7072601e+00   6.5087258e+03
 6.7119398e+00   6.5068804e+03
 6.7166200e+00   6.5084146e+03
 6.7213001e+00   6.5178035e+03
 6.7259798e+00   6.5464302e+03
 6.7306600e+00   6.5329835e+03
 6.7353401e+00   6.6134030e+03
 6.7400198e+00   6.5715999e+03
 6.7447000e+00   6.6322625e+03
 6.7493801e+00   6.5890911e+03
 6.7540598e+00   6.6486425e+03
 6.7587399e+00   6.6379835e+03
 6.7634201e+00   6.6809871e+03
 6.7680998e+00   6.6754185e+03
 6.7727799e+00   6.7685313e+03
 6.7774601e+00   6.6807227e+03
 6.7821398e+00   6.7641904e+03
 6.7868199e+00   6.7442540e+03
 6.7915001e+00   6.7809854e+03
 6.7961798e+00   6.7894362e+03
 6.8008599e+00   6.7861919e+03
 6.8055401e+00   6.7979713e+03
 6.8102198e+00   6.8190696e+03
 6.8148999e+00   6.8135030e+03
 6.8195801e+00   6.8430792e+03
 6.8242602e+00   6.8485860e+03
 6.8289399e+00   6.8198131e+03
 6.8336201e+00   6.8953599e+03
 6.8383002e+00   6.8636996e+03
 6.8429799e+00   6.9144026e+03
 6.8476601e+00   6.9715941e+03
 6.8523402e+00   6.9552880e+03
 6.8570199e+00   6.9840195e+03
 6.8617001e+00   7.0625409e+03
 6.8663802e+00   7.0825908e+03
 6.8710599e+00   7.1490245e+03
 6.8757401e+00   7.1964744e+03
 6.8804202e+00   7.2576251e+03
 6.8850999e+00   7.3241983e+03
 6.8897800e+00   7.4308945e+03
 6.8944602e+00   7.4723919e+03
 6.8991399e+00   7.6051229e+03
 6.9038200e+00   7.6563528e+03
 6.9085002e+00   7.8053173e+03
 6.9131799e+00   7.8417740e+03
 6.9178600e+00   8.0062509e+03
 6.9225402e+00   8.0307083e+03
 6.9272199e+00   8.1808278e+03
 6.9319000e+00   8.1790148e+03
 6.9365802e+00   8.2918126e+03
 6.9412599e+00   8.2630327e+03
 6.9459400e+00   8.3446965e+03
 6.9506202e+00   8.3358022e+03
 6.9552999e+00   8.3624351e+03
 6.9599800e+00   8.3297134e+03
 6.9646602e+00   8.3108023e+03
 6.9693398e+00   8.2249536e+03
 6.9740200e+00   8.2653297e+03
 6.9787002e+00   8.1956671e+03
 6.9833798e+00   8.1494314e+03
 6.9880600e+00   8.1162868e+03
 6.9927402e+00   8.0784041e+03
 6.9974198e+00   8.0161738e+03
 7.0021000e+00   7.9390413e+03
 7.0067801e+00   7.9792751e+03
 7.0114598e+00   7.9385447e+03
 7.0161400e+00   7.8889550e+03
 7.0208201e+00   7.8204095e+03
 7.0254998e+00   7.8290559e+03
 7.0301800e+00   7.7347287e+03
 7.0348601e+00   7.7533849e+03
 7.0395398e+00   7.6720438e+03
 7.0442200e+00   7.6688942e+03
 7.0489001e+00   7.6078513e+03
 7.0535798e+00   7.5919322e+03
 7.0582600e+00   7.5633844e+03
 7.0629401e+00   7.6045698e+03
 7.0676198e+00   7.4915864e+03
 7.0723000e+00   7.4846080e+03
 7.0769801e+00   7.3819786e+03
 7.0816598e+00   7.3191596e+03
 7.0863400e+00   7.2695414e+03
 7.0910201e+00   7.1490110e+03
 7.0956998e+00   7.0937634e+03
 7.1003799e+00   7.0583566e+03
 7.1050601e+00   7.0112743e+03
 7.1097398e+00   6.9662867e+03
 7.1144199e+00   6.9430780e+03
 7.1191001e+00   6.8994852e+03
 7.1237798e+00   6.9291195e+03
 7.1284599e+00   6.8670646e+03
 7.1331401e+00   6.8698797e+03
 7.1378198e+00   6.8306338e+03
 7.1424999e+00   6.8345888e+03
 7.1471801e+00   6.7997969e+03
 7.1518602e+00   6.8138482e+03
 7.1565399e+00   6.7741460e+03
 7.1612201e+00   6.7928145e+03
 7.1659002e+00   6.7521952e+03
 7.1705799e+00   6.7567280e+03
 7.1752601e+00   6.7678243e+03
 7.1799402e+00   6.7428810e+03
 7.1846199e+00   6.7412807e+03
 7.1893001e+00   6.7266286e+03
 7.1939802e+00   6.7244438e+03
 7.1986599e+00   6.7228200e+03
 7.2033401e+00   6.7067861e+03
 7.2080202e+00   6.6883675e+03
 7.2126999e+00   6.7270903e+03
 7.2173800e+00   6.6778058e+03
 7.2220602e+00   6.6833548e+03
 7.2267399e+00   6.6794959e+03
 7.2314200e+00   6.6890491e+03
 7.2361002e+00   6.6821939e+03
 7.2407799e+00   6.7088516e+03
 7.2454600e+00   6.6840350e+03
 7.2501402e+00   6.7240534e+03
 7.2548199e+00   6.7166060e+03
 7.2595000e+00   6.7193337e+03
 7.2641802e+00   6.7469955e+03
 7.2688599e+00   6.7301069e+03
 7.2735400e+00   6.7377664e+03
 7.2782202e+00   6.7341788e+03
 7.2828999e+00   6.7355011e+03
 7.2875800e+00   6.7344202e+03
 7.2922602e+00   6.7230234e+03
 7.2969398e+00   6.7126666e+03
 7.3016200e+00   6.7427638e+03
 7.3063002e+00   6.7329592e+03
 7.3109798e+00   6.7441111e+03
 7.3156600e+00   6.7481236e+03
 7.3203402e+00   6.7750586e+03
 7.3250198e+00   6.7723376e+03
 7.3297000e+00   6.7861952e+03
 7.3343801e+00   6.7891804e+03
 7.3390598e+00   6.8186611e+03
 7.3437400e+00   6.8371733e+03
 7.3484201e+00   6.8509249e+03
 7.3530998e+00   6.8682078e+03
 7.3577800e+00   6.8715176e+03
 7.3624601e+00   6.9003777e+03
 7.3671398e+00   6.9060965e+03
 7.3718200e+00   6.9479968e+03
 7.3765001e+00   6.9378168e+03
 7.3811798e+00   6.9703628e+03
 7.3858600e+00   6.9699215e+03
 7.3905401e+00   6.9876299e+03
 7.3952198e+00   7.0124984e+03
 7.3999000e+00   7.0329873e+03
 7.4045801e+00   7.0529027e+03
 7.4092598e+00   7.0599642e+03
 7.4139400e+00   7.1003340e+03
 7.4186201e+00   7.1215243e+03
 7.4232998e+00   7.1508282e+03
 7.4279799e+00   7.1898214e+03
 7.4326601e+00   7.2286709e+03
 7.4373398e+00   7.2529670e+03
 7.4420199e+00   7.2867523e+03
 7.4467001e+00   7.3051899e+03
 7.4513798e+00   7.3424757e+03
 7.4560599e+00   7.3817400e+03
 7.4607401e+00   7.3838111e+03
 7.4654198e+00   7.4061064e+03
 7.4700999e+00   7.3998709e+03
 7.4747801e+00   7.4282816e+03
 7.4794598e+00   7.4113812e+03
 7.4841399e+00   7.4105381e+03
 7.4888201e+00   7.4048190e+03
 7.4935002e+00   7.3849602e+03
 7.4981799e+00   7.3679391e+03
 7.5028601e+00   7.3725645e+03
 7.5075402e+00   7.3537892e+03
 7.5122199e+00   7.3533212e+03
 7.5169001e+00   7.3272187e+03
 7.5215802e+00   7.3147025e+03
 7.5262599e+00   7.2951108e+03
 7.5309401e+00   7.2743536e+03
 7.5356202e+00   7.2672264e+03
 7.5402999e+00   7.2588360e+03
 7.5449800e+00   7.2574798e+03
 7.5496602e+00   7.2300614e+03
 7.5543399e+00   7.2304034e+03
 7.5590200e+00   7.2091366e+03
 7.5637002e+00   7.2202037e+03
 7.5683799e+00   7.1795006e+03
 7.5730600e+00   7.1822472e+03
 7.5777402e+00   7.1546970e+03
 7.5824199e+00   7.1510284e+03
 7.5871000e+00   7.1001154e+03
 7.5917802e+00   7.0947350e+03
 7.5964599e+00   7.0481387e+03
 7.6011400e+00   7.0118512e+03
 7.6058202e+00   6.9599898e+03
 7.6104999e+00   6.9099639e+03
 7.6151800e+00   6.8745403e+03
 7.6198602e+00   6.7713998e+03
 7.6245399e+00   6.7270253e+03
 7.6292200e+00   6.6494890e+03
 7.6339002e+00   6.6082786e+03
 7.6385798e+00   6.5438686e+03
 7.6432600e+00   6.5045888e+03
 7.6479402e+00   6.4285685e+03
 7.6526198e+00   6.4253951e+03
 7.6573000e+00   6.3683706e+03
 7.6619802e+00   6.3457702e+03
 7.6666598e+00   6.3068034e+03
 7.6713400e+00   6.2922143e+03
 7.6760201e+00   6.2513849e+03
 7.6806998e+00   6.2483206e+03
 7.6853800e+00   6.2117555e+03
 7.6900601e+00   6.1988827e+03
 7.6947398e+00   6.1827368e+03
 7.6994200e+00   6.1603260e+03
 7.7041001e+00   6.1510153e+03
 7.7087798e+00   6.1298408e+03
 7.7134600e+00   6.1201957e+03
 7.7181401e+00   6.1097025e+03
 7.7228198e+00   6.1170250e+03
 7.7275000e+00   6.0814336e+03
 7.7321801e+00   6.0846712e+03
 7.7368598e+00   6.0602408e+03
 7.7415400e+00   6.0501469e+03
 7.7462201e+00   6.0373677e+03
 7.7508998e+00   6.0175609e+03
 7.7555799e+00   5.9843087e+03
 7.7602601e+00   6.0171867e+03
 7.7649398e+00   5.9789394e+03
 7.7696199e+00   5.9722930e+03
 7.7743001e+00   5.9691239e+03
 7.7789798e+00   5.9312424e+03
 7.7836599e+00   5.9488970e+03
 7.7883401e+00   5.9172728e+03
 7.7930198e+00   5.9276813e+03
 7.7976999e+00   5.9144693e+03
 7.8023801e+00   5.8824906e+03
 7.8070598e+00   5.8690292e+03
 7.8117399e+00   5.8756134e+03
 7.8164201e+00   5.8261697e+03
 7.8211002e+00   5.8597974e+03
 7.8257799e+00   5.8272346e+03
 7.8304601e+00   5.8137527e+03
 7.8351402e+00   5.8371313e+03
 7.8398199e+00   5.8070635e+03
 7.8445001e+00   5.8023424e+03
 7.8491802e+00   5.8187770e+03
 7.8538599e+00   5.7935071e+03
 7.8585401e+00   5.7750745e+03
 7.8632202e+00   5.7951259e+03
 7.8678999e+00   5.7450059e+03
 7.8725801e+00   5.7972124e+03
 7.8772602e+00   5.7666954e+03
 7.8819399e+00   5.7600516e+03
 7.8866200e+00   5.7506012e+03
 7.8913002e+00   5.7578073e+03
 7.8959799e+00   5.7207857e+03
 7.9006600e+00   5.7337279e+03
 7.9053402e+00   5.6996357e+03
 7.9100199e+00   5.7301496e+03
 7.9147000e+00   5.6932290e+03
 7.9193802e+00   5.7023897e+03
 7.9240599e+00   5.6899177e+03
 7.9287400e+00   5.6879285e+03
 7.9334202e+00   5.6902471e+03
 7.9380999e+00   5.6769342e+03
 7.9427800e+00   5.6658716e+03
 7.9474602e+00   5.6858827e+03
 7.9521399e+00   5.6461388e+03
 7.9568200e+00   5.6319438e+03
 7.9615002e+00   5.6649369e+03
 7.9661798e+00   5.6262354e+03
 7.9708600e+00   5.6292142e+03
 7.9755402e+00   5.6332893e+03
 7.9802198e+00   5.6047801e+03
 7.9849000e+00   5.6091514e+03
 7.9895802e+00   5.6221639e+03
 7.9942598e+00   5.5875948e+03
 7.9989400e+00   5.6174463e+03
 8.0036201e+00   5.5699144e+03
 8.0082998e+00   5.5906324e+03
 8.0129805e+00   5.5784181e+03
 8.0176601e+00   5.5678562e+03
 8.0223398e+00   5.5782603e+03
 8.0270205e+00   5.5712483e+03
 8.0317001e+00   5.5674341e+03
 8.0363798e+00   5.5723615e+03
 8.0410604e+00   5.5549238e+03
 8.0457401e+00   5.5602802e+03
 8.0504198e+00   5.5667232e+03
 8.0551004e+00   5.5376116e+03
 8.0597801e+00   5.5802495e+03
 8.0644598e+00   5.5576837e+03
 8.0691404e+00   5.5850689e+03
 8.0738201e+00   5.6153487e+03
 8.0784998e+00   5.6270459e+03
 8.0831804e+00   5.6399921e+03
 8.0878601e+00   5.6843014e+03
 8.0925398e+00   5.6772957e+03
 8.0972204e+00   5.7331580e+03
 8.1019001e+00   5.7345703e+03
 8.1065798e+00   5.7518538e+03
 8.1112604e+00   5.7876689e+03
 8.1159401e+00   5.7861796e+03
 8.1206198e+00   5.8040490e+03
 8.1253004e+00   5.8115136e+03
 8.1299801e+00   5.7957705e+03
 8.1346598e+00   5.8145835e+03
 8.1393404e+00   5.8223087e+03
 8.1440201e+00   5.7981097e+03
 8.1486998e+00   5.8596096e+03
 8.1533804e+00   5.8237895e+03
 8.1580601e+00   5.8538381e+03
 8.1627398e+00   5.8567110e+03
 8.1674204e+00   5.8877252e+03
 8.1721001e+00   5.8974007e+03
 8.1767797e+00   5.9420265e+03
 8.1814604e+00   5.9307670e+03
 8.1861401e+00   6.0065629e+03
 8.1908197e+00   6.0410828e+03
 8.1955004e+00   6.0899535e+03
 8.2001801e+00   6.1693707e+03
 8.2048597e+00   6.2128589e+03
 8.2095404e+00   6.3017018e+03
 8.2142200e+00   6.3851700e+03
 8.2188997e+00   6.4740020e+03
 8.2235804e+00   6.5852700e+03
 8.2282600e+00   6.6646011e+03
 8.2329397e+00   6.7551086e+03
 8.2376204e+00   6.8639689e+03
 8.2423000e+00   6.9102753e+03
 8.2469797e+00   7.0339178e+03
 8.2516603e+00   7.0866797e+03
 8.2563400e+00   7.1710888e+03
 8.2610197e+00   7.2270891e+03
 8.2657003e+00   7.3001236e+03
 8.2703800e+00   7.3536745e+03
 8.2750597e+00   7.4147063e+03
 8.2797403e+00   7.4583010e+03
 8.2844200e+00   7.4883270e+03
 8.2890997e+00   7.5065990e+03
 8.2937803e+00   7.4769324e+03
 8.2984600e+00   7.4697644e+03
 8.3031397e+00   7.3821877e+03
 8.3078203e+00   7.3202126e+03
 8.3125000e+00   7.1790524e+03
 8.3171797e+00   7.0650317e+03
 8.3218603e+00   6.8721434e+03
 8.3265400e+00   6.7469673e+03
 8.3312197e+00   6.5879263e+03
 8.3359003e+00   6.4645372e+03
 8.3405800e+00   6.3000797e+03
 8.3452597e+00   6.2113563e+03
 8.3499403e+00   6.0743133e+03
 8.3546200e+00   6.0386328e+03
 8.3592997e+00   5.9564790e+03
 8.3639803e+00   5.9420973e+03
 8.3686600e+00   5.9445912e+03
 8.3733397e+00   6.0328513e+03
 8.3780203e+00   6.1772090e+03
 8.3827000e+00   6.3977689e+03
 8.3873796e+00   6.5741362e+03
 8.3920603e+00   6.9639509e+03
 8.3967400e+00   7.4088222e+03
 8.4014196e+00   7.8113477e+03
 8.4061003e+00   8.1174000e+03
 8.4107800e+00   8.1039676e+03
 8.4154596e+00   7.8271484e+03
 8.4201403e+00   7.5296607e+03
 8.4248199e+00   6.9270635e+03
 8.4294996e+00   6.5711776e+03
 8.4341803e+00   6.3190572e+03
 8.4388599e+00   6.1871712e+03
 8.4435396e+00   6.0520988e+03
 8.4482203e+00   5.9138325e+03
 8.4528999e+00   5.8809445e+03
 8.4575796e+00   5.8650038e+03
 8.4622602e+00   5.8396212e+03
 8.4669399e+00   5.8774760e+03
 8.4716196e+00   5.8974381e+03
 8.4763002e+00   5.9284135e+03
 8.4809799e+00   5.9477442e+03
 8.4856596e+00   5.9990735e+03
 8.4903402e+00   6.0210918e+03
 8.4950199e+00   6.0842480e+03
 8.4996996e+00   6.1304161e+03
 8.5043802e+00   6.1886197e+03
 8.5090599e+00   6.2230225e+03
 8.5137396e+00   6.3169324e+03
 8.5184202e+00   6.3433618e+03
 8.5230999e+00   6.4483728e+03
 8.5277796e+00   6.5021026e+03
 8.5324602e+00   6.5747306e+03
 8.5371399e+00   6.6466636e+03
 8.5418196e+00   6.7159657e+03
 8.5465002e+00   6.7781309e+03
 8.5511799e+00   6.8617863e+03
 8.5558596e+00   6.9263343e+03
 8.5605402e+00   6.9466994e+03
 8.5652199e+00   7.0173791e+03
 8.5698996e+00   7.0045948e+03
 8.5745802e+00   7.0538444e+03
 8.5792599e+00   7.0268734e+03
 8.5839396e+00   7.0594943e+03
 8.5886202e+00   7.0138253e+03
 8.5932999e+00   6.9978549e+03
 8.5979795e+00   6.9368436e+03
 8.6026602e+00   6.8722172e+03
 8.6073399e+00   6.8120734e+03
 8.6120195e+00   6.7427161e+03
 8.6167002e+00   6.6583298e+03
 8.6213799e+00   6.5637076e+03
 8.6260595e+00   6.5011760e+03
 8.6307402e+00   6.4043816e+03
 8.6354198e+00   6.3324439e+03
 8.6400995e+00   6.2605532e+03
 8.6447802e+00   6.1850277e+03
 8.6494598e+00   6.1040874e+03
 8.6541405e+00   6.0512090e+03
 8.6588202e+00   5.9776825e+03
 8.6634998e+00   5.9237587e+03
 8.6681805e+00   5.8704429e+03
 8.6728601e+00   5.8276923e+03
 8.6775398e+00   5.7806609e+03
 8.6822205e+00   5.7337975e+03
 8.6869001e+00   5.7026501e+03
 8.6915798e+00   5.6621796e+03
 8.6962605e+00   5.6300967e+03
 8.7009401e+00   5.6131160e+03
 8.7056198e+00   5.5905857e+03
 8.7103004e+00   5.5563226e+03
 8.7149801e+00   5.5563366e+03
 8.7196598e+00   5.5239054e+03
 8.7243404e+00   5.5014560e+03
 8.7290201e+00   5.4882293e+03
 8.7336998e+00   5.4664609e+03
 8.7383804e+00   5.4464165e+03
 8.7430601e+00   5.4453765e+03
 8.7477398e+00   5.4120508e+03
 8.7524204e+00   5.4135203e+03
 8.7571001e+00   5.3909551e+03
 8.7617798e+00   5.3812790e+03
 8.7664604e+00   5.3720874e+03
 8.7711401e+00   5.3414186e+03
 8.7758198e+00   5.3212204e+03
 8.7805004e+00   5.3401829e+03
 8.7851801e+00   5.3165766e+03
 8.7898598e+00   5.3001968e+03
 8.7945404e+00   5.3094940e+03
 8.7992201e+00   5.2637019e+03
 8.8038998e+00   5.2831647e+03
 8.8085804e+00   5.2534794e+03
 8.8132601e+00   5.2587390e+03
 8.8179398e+00   5.2330747e+03
 8.8226204e+00   5.2316421e+03
 8.8273001e+00   5.2086214e+03
 8.8319798e+00   5.2118184e+03
 8.8366604e+00   5.1725095e+03
 8.8413401e+00   5.2008324e+03
 8.8460197e+00   5.1663941e+03
 8.8507004e+00   5.1555134e+03
 8.8553801e+00   5.1321668e+03
 8.8600597e+00   5.1061896e+03
 8.8647404e+00   5.1115898e+03
 8.8694201e+00   5.0827239e+03
 8.8740997e+00   5.0733456e+03
 8.8787804e+00   5.0544112e+03
 8.8834600e+00   5.0577040e+03
 8.8881397e+00   5.0388515e+03
 8.8928204e+00   5.0389954e+03
 8.8975000e+00   5.0254689e+03
 8.9021797e+00   5.0358953e+03
 8.9068604e+00   5.0226210e+03
 8.9115400e+00   5.0161137e+03
 8.9162197e+00   5.0265473e+03
 8.9209003e+00   5.0101509e+03
 8.9255800e+00   5.0138416e+03
 8.9302597e+00   5.0096400e+03
 8.9349403e+00   4.9976463e+03
 8.9396200e+00   4.9906108e+03
 8.9442997e+00   4.9956727e+03
 8.9489803e+00   4.9873826e+03
 8.9536600e+00   5.0037809e+03
 8.9583397e+00   4.9860175e+03
 8.9630203e+00   5.0040211e+03
 8.9677000e+00   4.9956198e+03
 8.9723797e+00   5.0005608e+03
 8.9770603e+00   4.9816131e+03
 8.9817400e+00   5.0060074e+03
 8.9864197e+00   4.9944347e+03
 8.9911003e+00   4.9962511e+03
 8.9957800e+00   4.9894636e+03
 9.0004597e+00   4.9945456e+03
 9.0051403e+00   4.9840709e+03
 9.0098200e+00   4.9953885e+03
 9.0144997e+00   4.9831692e+03
 9.0191803e+00   4.9776677e+03
 9.0238600e+00   4.9856179e+03
 9.0285397e+00   4.9622895e+03
 9.0332203e+00   4.9644068e+03
 9.0379000e+00   4.9649217e+03
 9.0425797e+00   4.9633204e+03
 9.0472603e+00   4.9497260e+03
 9.0519400e+00   4.9574438e+03
 9.0566196e+00   4.9443677e+03
 9.0613003e+00   4.9556483e+03
 9.0659800e+00   4.9529992e+03
 9.0706596e+00   4.9441188e+03
 9.0753403e+00   4.9478459e+03
 9.0800200e+00   4.9462446e+03
 9.0846996e+00   4.9503775e+03
 9.0893803e+00   4.9517801e+03
 9.0940599e+00   4.9527676e+03
 9.0987396e+00   4.9540412e+03
 9.1034203e+00   4.9611852e+03
 9.1080999e+00   4.9644840e+03
 9.1127796e+00   4.9696472e+03
 9.1174603e+00   4.9821037e+03
 9.1221399e+00   4.9889027e+03
 9.1268196e+00   4.9925395e+03
 9.1315002e+00   5.0006884e+03
 9.1361799e+00   4.9956787e+03
 9.1408596e+00   5.0084325e+03
 9.1455402e+00   5.0109725e+03
 9.1502199e+00   5.0343388e+03
 9.1548996e+00   5.0347486e+03
 9.1595802e+00   5.0513523e+03
 9.1642599e+00   5.0635409e+03
 9.1689396e+00   5.0725142e+03
 9.1736202e+00   5.0841002e+03
 9.1782999e+00   5.0929051e+03
 9.1829796e+00   5.1047417e+03
 9.1876602e+00   5.1317123e+03
 9.1923399e+00   5.1508926e+03
 9.1970196e+00   5.1586813e+03
 9.2017002e+00   5.1897551e+03
 9.2063799e+00   5.1894538e+03
 9.2110596e+00   5.2063479e+03
 9.2157402e+00   5.2315416e+03
 9.2204199e+00   5.2381917e+03
 9.2250996e+00   5.2588653e+03
 9.2297802e+00   5.2802131e+03
 9.2344599e+00   5.2995730e+03
 9.2391396e+00   5.3209536e+03
 9.2438202e+00   5.3440485e+03
 9.2484999e+00   5.3602916e+03
 9.2531796e+00   5.3797731e+03
 9.2578602e+00   5.4158478e+03
 9.2625399e+00   5.4328453e+03
 9.2672195e+00   5.4629642e+03
 9.2719002e+00   5.4816778e+03
 9.2765799e+00   5.5282813e+03
 9.2812595e+00   5.5473866e+03
 9.2859402e+00   5.5592266e+03
 9.2906199e+00   5.5872258e+03
 9.2952995e+00   5.6062796e+03
 9.2999802e+00   5.6369551e+03
 9.3046598e+00   5.6578180e+03
 9.3093395e+00   5.6710738e+03
 9.3140202e+00   5.6870503e+03
 9.3186998e+00   5.7005161e+03
 9.3233805e+00   5.7161510e+03
 9.3280602e+00   5.7311285e+03
 9.3327398e+00   5.7370404e+03
 9.3374205e+00   5.7365201e+03
 9.3421001e+00   5.7412383e+03
 9.3467798e+00   5.7293918e+03
 9.3514605e+00   5.7296088e+03
 9.3561401e+00   5.7056424e+03
 9.3608198e+00   5.6934519e+03
 9.3655005e+00   5.6828369e+03
 9.3701801e+00   5.6433276e+03
 9.3748598e+00   5.6106407e+03
 9.3795404e+00   5.5845697e+03
 9.3842201e+00   5.5494348e+03
 9.3888998e+00   5.5313109e+03
 9.3935804e+00   5.4826973e+03
 9.3982601e+00   5.4487771e+03
 9.4029398e+00   5.4144809e+03
 9.4076204e+00   5.3747101e+03
 9.4123001e+00   5.3510057e+03
 9.4169798e+00   5.3242588e+03
 9.4216604e+00   5.3002637e+03
 9.4263401e+00   5.2802351e+03
 9.4310198e+00   5.2614070e+03
 9.4357004e+00   5.2336011e+03
 9.4403801e+00   5.2206294e+03
 9.4450598e+00   5.2054584e+03
 9.4497404e+00   5.1967799e+03
 9.4544201e+00   5.1947746e+03
 9.4590998e+00   5.1764335e+03
 9.4637804e+00   5.1760954e+03
 9.4684601e+00   5.1747752e+03
 9.4731398e+00   5.1907322e+03
 9.4778204e+00   5.1834150e+03
 9.4825001e+00   5.1957058e+03
 9.4871798e+00   5.1821421e+03
 9.4918604e+00   5.2096227e+03
 9.4965401e+00   5.1974922e+03
 9.5012197e+00   5.2107944e+03
 9.5059004e+00   5.1990610e+03
 9.5105801e+00   5.2023759e+03
 9.5152597e+00   5.2113044e+03
 9.5199404e+00   5.2062185e+03
 9.5246201e+00   5.2016149e+03
 9.5292997e+00   5.2152587e+03
 9.5339804e+00   5.2059880e+03
 9.5386600e+00   5.2229735e+03
 9.5433397e+00   5.2185222e+03
 9.5480204e+00   5.2280356e+03
 9.5527000e+00   5.2396016e+03
 9.5573797e+00   5.2439892e+03
 9.5620604e+00   5.2489996e+03
 9.5667400e+00   5.2633141e+03
 9.5714197e+00   5.2705770e+03
 9.5761003e+00   5.2922316e+03
 9.5807800e+00   5.2978951e+03
 9.5854597e+00   5.3062785e+03
 9.5901403e+00   5.3187004e+03
 9.5948200e+00   5.3355527e+03
 9.5994997e+00   5.3401916e+03
 9.6041803e+00   5.3593637e+03
 9.6088600e+00   5.3679179e+03
 9.6135397e+00   5.3874572e+03
 9.6182203e+00   5.3916845e+03
 9.6229000e+00   5.3866806e+03
 9.6275797e+00   5.4023284e+03
 9.6322603e+00   5.3887246e+03
 9.6369400e+00   5.3927701e+03
 9.6416197e+00   5.3945501e+03
 9.6463003e+00   5.3943786e+03
 9.6509800e+00   5.4035937e+03
 9.6556597e+00   5.4047489e+03
 9.6603403e+00   5.4094907e+03
 9.6650200e+00   5.4217149e+03
 9.6696997e+00   5.4277247e+03
 9.6743803e+00   5.4444831e+03
 9.6790600e+00   5.4422844e+03
 9.6837397e+00   5.4419959e+03
 9.6884203e+00   5.4610747e+03
 9.6931000e+00   5.4396809e+03
 9.6977797e+00   5.4527646e+03
 9.7024603e+00   5.4456953e+03
 9.7071400e+00   5.4205067e+03
 9.7118196e+00   5.4109297e+03
 9.7165003e+00   5.3761278e+03
 9.7211800e+00   5.3371743e+03
 9.7258596e+00   5.3228484e+03
 9.7305403e+00   5.2794469e+03
 9.7352200e+00   5.2454842e+03
 9.7398996e+00   5.2308230e+03
 9.7445803e+00   5.1957100e+03
 9.7492599e+00   5.1850133e+03
 9.7539396e+00   5.1643399e+03
 9.7586203e+00   5.1553583e+03
 9.7632999e+00   5.1479526e+03
 9.7679796e+00   5.1449181e+03
 9.7726603e+00   5.1423459e+03
 9.7773399e+00   5.1523914e+03
 9.7820196e+00   5.1467950e+03
 9.7867002e+00   5.1693225e+03
 9.7913799e+00   5.1922715e+03
 9.7960596e+00   5.2188651e+03
 9.8007402e+00   5.2252423e+03
 9.8054199e+00   5.2852225e+03
 9.8100996e+00   5.3476739e+03
 9.8147802e+00   5.4260993e+03
 9.8194599e+00   5.5455189e+03
 9.8241396e+00   5.7363010e+03
 9.8288202e+00   6.0238448e+03
 9.8334999e+00   6.5119309e+03
 9.8381796e+00   7.2555700e+03
 9.8428602e+00   8.2231080e+03
 9.8475399e+00   9.6826828e+03
 9.8522196e+00   1.0774102e+04
 9.8569002e+00   1.2216219e+04
 9.8615799e+00   1.2716126e+04
 9.8662596e+00   1.2843922e+04
 9.8709402e+00   1.1890881e+04
 9.8756199e+00   1.0978626e+04
 9.8802996e+00   9.3606430e+03
 9.8849802e+00   8.1483741e+03
 9.8896599e+00   7.2295746e+03
 9.8943396e+00   6.6087497e+03
 9.8990202e+00   6.1497269e+03
 9.9036999e+00   5.8602137e+03
 9.9083796e+00   5.6958806e+03
 9.9130602e+00   5.5775338e+03
 9.9177399e+00   5.5181860e+03
 9.9224195e+00   5.4704959e+03
 9.9271002e+00   5.4572715e+03
 9.9317799e+00   5.4294645e+03
 9.9364595e+00   5.4202545e+03
 9.9411402e+00   5.4075947e+03
 9.9458199e+00   5.4043463e+03
 9.9504995e+00   5.4029368e+03
 9.9551802e+00   5.4070995e+03
 9.9598598e+00   5.4050136e+03
 9.9645395e+00   5.3966233e+03
 9.9692202e+00   5.3929519e+03
 9.9738998e+00   5.4072021e+03
 9.9785805e+00   5.4039179e+03
 9.9832602e+00   5.4030576e+03
 9.9879398e+00   5.4129378e+03
 9.9926205e+00   5.4127235e+03
 9.9973001e+00   5.4148002e+03
 1.0001980e+01   5.4088969e+03
 1.0006660e+01   5.4018103e+03
 1.0011340e+01   5.3754540e+03
 1.0016020e+01   5.3718420e+03
 1.0020700e+01   5.3652673e+03
 1.0025380e+01   5.3541425e+03
 1.0030060e+01   5.3349873e+03
 1.0034740e+01   5.3376708e+03
 1.0039420e+01   5.3095485e+03
 1.0044100e+01   5.2974536e+03
 1.0048780e+01   5.2934330e+03
 1.0053460e+01   5.2784798e+03
 1.0058140e+01   5.2789224e+03
 1.0062820e+01   5.2637776e+03
 1.0067500e+01   5.2647659e+03
 1.0072180e+01   5.2401330e+03
 1.0076860e+01   5.2493536e+03
 1.0081540e+01   5.2253312e+03
 1.0086220e+01   5.2438654e+03
 1.0090900e+01   5.2330622e+03
 1.0095580e+01   5.2406604e+03
 1.0100260e+01   5.2270721e+03
 1.0104940e+01   5.2258309e+03
 1.0109620e+01   5.2300007e+03
 1.0114300e+01   5.2277558e+03
 1.0118980e+01   5.2390802e+03
 1.0123660e+01   5.2459435e+03
 1.0128340e+01   5.2301832e+03
 1.0133020e+01   5.2351405e+03
 1.0137700e+01   5.2536603e+03
 1.0142380e+01   5.2596070e+03
 1.0147060e+01   5.2678868e+03
 1.0151740e+01   5.2801603e+03
 1.0156420e+01   5.3007545e+03
 1.0161100e+01   5.3059742e+03
 1.0165780e+01   5.3168949e+03
 1.0170460e+01   5.3443276e+03
 1.0175140e+01   5.3592447e+03
 1.0179820e+01   5.3667837e+03
 1.0184500e+01   5.3962118e+03
 1.0189180e+01   5.3917171e+03
 1.0193860e+01   5.4601151e+03
 1.0198540e+01   5.4683435e+03
 1.0203220e+01   5.4939556e+03
 1.0207900e+01   5.5211822e+03
 1.0212580e+01   5.5347020e+03
 1.0217260e+01   5.5747501e+03
 1.0221940e+01   5.5764547e+03
 1.0226620e+01   5.5988409e+03
 1.0231300e+01   5.6323088e+03
 1.0235980e+01   5.6367331e+03
 1.0240660e+01   5.6356684e+03
 1.0245340e+01   5.6716319e+03
 1.0250020e+01   5.6558039e+03
 1.0254700e+01   5.6877649e+03
 1.0259380e+01   5.7047194e+03
 1.0264060e+01   5.7773064e+03
 1.0268740e+01   5.9039439e+03
 1.0273420e+01   6.0787869e+03
 1.0278100e+01   6.3994761e+03
 1.0282780e+01   6.7957770e+03
 1.0287460e+01   7.3202058e+03
 1.0292140e+01   8.0033580e+03
 1.0296820e+01   8.4448880e+03
 1.0301500e+01   8.7088219e+03
 1.0306180e+01   8.4753108e+03
 1.0310860e+01   8.3156770e+03
 1.0315540e+01   7.7123482e+03
 1.0320220e+01   7.0155212e+03
 1.0324900e+01   6.5287488e+03
 1.0329580e+01   6.0905404e+03
 1.0334260e+01   5.7780022e+03
 1.0338940e+01   5.5471448e+03
 1.0343620e+01   5.4205063e+03
 1.0348300e+01   5.3568940e+03
 1.0352980e+01   5.2920368e+03
 1.0357660e+01   5.2719852e+03
 1.0362340e+01   5.2488801e+03
 1.0367020e+01   5.2311301e+03
 1.0371700e+01   5.2108592e+03
 1.0376380e+01   5.2300285e+03
 1.0381060e+01   5.2196252e+03
 1.0385740e+01   5.2274959e+03
 1.0390420e+01   5.2107470e+03
 1.0395100e+01   5.2221208e+03
 1.0399780e+01   5.2270248e+03
 1.0404460e+01   5.2197707e+03
 1.0409140e+01   5.2332828e+03
 1.0413820e+01   5.2264843e+03
 1.0418500e+01   5.2492643e+03
 1.0423180e+01   5.2564530e+03
 1.0427860e+01   5.2555298e+03
 1.0432540e+01   5.2622976e+03
 1.0437220e+01   5.2880904e+03
 1.0441900e+01   5.2964719e+03
 1.0446580e+01   5.3239108e+03
 1.0451260e+01   5.3164659e+03
 1.0455940e+01   5.3347606e+03
 1.0460620e+01   5.3538371e+03
 1.0465300e+01   5.3561404e+03
 1.0469980e+01   5.3805108e+03
 1.0474660e+01   5.3886301e+03
 1.0479340e+01   5.3936140e+03
 1.0484020e+01   5.3980496e+03
 1.0488700e+01   5.4016712e+03
 1.0493380e+01   5.4051656e+03
 1.0498060e+01   5.4090111e+03
 1.0502740e+01   5.3923251e+03
 1.0507420e+01   5.4159182e+03
 1.0512100e+01   5.3921161e+03
 1.0516780e+01   5.3919145e+03
 1.0521460e+01   5.3776502e+03
 1.0526140e+01   5.3627937e+03
 1.0530820e+01   5.3555156e+03
 1.0535500e+01   5.3561520e+03
 1.0540180e+01   5.3154234e+03
 1.0544860e+01   5.3111676e+03
 1.0549540e+01   5.2927354e+03
 1.0554220e+01   5.2797652e+03
 1.0558900e+01   5.2761662e+03
 1.0563580e+01   5.2612369e+03
 1.0568260e+01   5.2407625e+03
 1.0572940e+01   5.2214756e+03
 1.0577620e+01   5.2086911e+03
 1.0582300e+01   5.1852952e+03
 1.0586980e+01   5.1876656e+03
 1.0591660e+01   5.1657799e+03
 1.0596340e+01   5.1574102e+03
 1.0601020e+01   5.1403742e+03
 1.0605700e+01   5.1404826e+03
 1.0610380e+01   5.1221804e+03
 1.0615060e+01   5.1045795e+03
 1.0619740e+01   5.1084749e+03
 1.0624420e+01   5.1019849e+03
 1.0629100e+01   5.0991336e+03
 1.0633780e+01   5.0800524e+03
 1.0638460e+01   5.0848947e+03
 1.0643140e+01   5.0689253e+03
 1.0647820e+01   5.0686103e+03
 1.0652500e+01   5.0692453e+03
 1.0657180e+01   5.0703282e+03
 1.0661860e+01   5.0630862e+03
 1.0666540e+01   5.0678989e+03
 1.0671220e+01   5.0575879e+03
 1.0675900e+01   5.0611929e+03
 1.0680580e+01   5.0538386e+03
 1.0685260e+01   5.0442519e+03
 1.0689940e+01   5.0661492e+03
 1.0694620e+01   5.0555251e+03
 1.0699300e+01   5.0550018e+03
 1.0703980e+01   5.0768956e+03
 1.0708660e+01   5.0749238e+03
 1.0713340e+01   5.0841866e+03
 1.0718020e+01   5.0910720e+03
 1.0722700e+01   5.0869781e+03
 1.0727380e+01   5.1273265e+03
 1.0732060e+01   5.1065963e+03
 1.0736740e+01   5.1303739e+03
 1.0741420e+01   5.1283845e+03
 1.0746100e+01   5.1451965e+03
 1.0750780e+01   5.1678963e+03
 1.0755460e+01   5.1616840e+03
 1.0760140e+01   5.1590837e+03
 1.0764820e+01   5.1685674e+03
 1.0769500e+01   5.1677106e+03
 1.0774180e+01   5.1626614e+03
 1.0778860e+01   5.1816293e+03
 1.0783540e+01   5.1610008e+03
 1.0788220e+01   5.1832339e+03
 1.0792900e+01   5.1542691e+03
 1.0797580e+01   5.1666767e+03
 1.0802260e+01   5.1543776e+03
 1.0806940e+01   5.1450549e+03
 1.0811620e+01   5.1530873e+03
 1.0816300e+01   5.1409272e+03
 1.0820980e+01   5.1421414e+03
 1.0825660e+01   5.1294425e+03
 1.0830340e+01   5.1269151e+03
 1.0835020e+01   5.1191451e+03
 1.0839700e+01   5.1226043e+03
 1.0844380e+01   5.1123727e+03
 1.0849060e+01   5.1062287e+03
 1.0853740e+01   5.0945864e+03
 1.0858420e+01   5.0891638e+03
 1.0863100e+01   5.0840250e+03
 1.0867780e+01   5.0794222e+03
 1.0872460e+01   5.0602604e+03
 1.0877140e+01   5.0450387e+03
 1.0881820e+01   5.0331257e+03
 1.0886500e+01   5.0168424e+03
 1.0891180e+01   5.0077192e+03
 1.0895860e+01   5.0000350e+03
 1.0900540e+01   4.9992752e+03
 1.0905220e+01   4.9758843e+03
 1.0909900e+01   4.9633623e+03
 1.0914580e+01   4.9556822e+03
 1.0919260e+01   4.9392022e+03
 1.0923940e+01   4.9202777e+03
 1.0928620e+01   4.9171356e+03
 1.0933300e+01   4.9106723e+03
 1.0937980e+01   4.9059273e+03
 1.0942660e+01   4.8928413e+03
 1.0947340e+01   4.8900215e+03
 1.0952020e+01   4.8701468e+03
 1.0956700e+01   4.8687407e+03
 1.0961380e+01   4.8697499e+03
 1.0966060e+01   4.8550029e+03
 1.0970740e+01   4.8570211e+03
 1.0975420e+01   4.8503585e+03
 1.0980100e+01   4.8437997e+03
 1.0984780e+01   4.8393895e+03
 1.0989460e+01   4.8382764e+03
 1.0994140e+01   4.8342362e+03
 1.0998820e+01   4.8343881e+03
 1.1003500e+01   4.8188143e+03
 1.1008180e+01   4.8292110e+03
 1.1012860e+01   4.8241855e+03
 1.1017540e+01   4.8127314e+03
 1.1022220e+01   4.8273318e+03
 1.1026900e+01   4.8217957e+03
 1.1031580e+01   4.8311286e+03
 1.1036260e+01   4.8281415e+03
 1.1040940e+01   4.8360390e+03
 1.1045620e+01   4.8221003e+03
 1.1050300e+01   4.8354717e+03
 1.1054980e+01   4.8323018e+03
 1.1059660e+01   4.8471085e+03
 1.1064340e+01   4.8383595e+03
 1.1069020e+01   4.8474743e+03
 1.1073700e+01   4.8604382e+03
 1.1078380e+01   4.8537352e+03
 1.1083060e+01   4.8698791e+03
 1.1087740e+01   4.8779399e+03
 1.1092420e+01   4.8789900e+03
 1.1097100e+01   4.9094476e+03
 1.1101780e+01   4.9102425e+03
 1.1106460e+01   4.9204742e+03
 1.1111140e+01   4.9414770e+03
 1.1115820e+01   4.9405170e+03
 1.1120500e+01   4.9599459e+03
 1.1125180e+01   4.9630016e+03
 1.1129860e+01   4.9832696e+03
 1.1134540e+01   4.9900590e+03
 1.1139220e+01   4.9890183e+03
 1.1143900e+01   5.0052693e+03
 1.1148580e+01   5.0030275e+03
 1.1153260e+01   5.0066573e+03
 1.1157940e+01   5.0085980e+03
 1.1162620e+01   5.0014061e+03
 1.1167300e+01   4.9950104e+03
 1.1171980e+01   4.9908390e+03
 1.1176660e+01   4.9736100e+03
 1.1181340e+01   4.9801710e+03
 1.1186020e+01   4.9586656e+03
 1.1190700e+01   4.9582127e+03
 1.1195380e+01   4.9417775e+03
 1.1200060e+01   4.9230527e+03
 1.1204740e+01   4.9263305e+03
 1.1209420e+01   4.9065430e+03
 1.1214100e+01   4.8986830e+03
 1.1218780e+01   4.8972341e+03
 1.1223460e+01   4.8747340e+03
 1.1228140e+01   4.8837593e+03
 1.1232820e+01   4.8754887e+03
 1.1237500e+01   4.8481340e+03
 1.1242180e+01   4.8511745e+03
 1.1246860e+01   4.8266322e+03
 1.1251540e+01   4.8137557e+03
 1.1256220e+01   4.7990315e+03
 1.1260900e+01   4.7791867e+03
 1.1265580e+01   4.7670567e+03
 1.1270260e+01   4.7544862e+03
 1.1274940e+01   4.7298708e+03
 1.1279620e+01   4.7422958e+03
 1.1284300e+01   4.7124472e+03
 1.1288980e+01   4.7105826e+03
 1.1293660e+01   4.7061864e+03
 1.1298340e+01   4.6760091e+03
 1.1303020e+01   4.6884367e+03
 1.1307700e+01   4.6730011e+03
 1.1312380e+01   4.6622668e+03
 1.1317060e+01   4.6647120e+03
 1.1321740e+01   4.6460287e+03
 1.1326420e+01   4.6414361e+03
 1.1331100e+01   4.6441833e+03
 1.1335780e+01   4.6270524e+03
 1.1340460e+01   4.6203936e+03
 1.1345140e+01   4.6218721e+03
 1.1349820e+01   4.6029572e+03
 1.1354500e+01   4.6249203e+03
 1.1359180e+01   4.5897115e+03
 1.1363860e+01   4.5955433e+03
 1.1368540e+01   4.5852123e+03
 1.1373220e+01   4.5827263e+03
 1.1377900e+01   4.5868876e+03
 1.1382580e+01   4.5712227e+03
 1.1387260e+01   4.5651242e+03
 1.1391940e+01   4.5719529e+03
 1.1396620e+01   4.5574286e+03
 1.1401300e+01   4.5590699e+03
 1.1405980e+01   4.5517640e+03
 1.1410660e+01   4.5497020e+03
 1.1415340e+01   4.5482710e+03
 1.1420020e+01   4.5412952e+03
 1.1424700e+01   4.5401757e+03
 1.1429380e+01   4.5422279e+03
 1.1434060e+01   4.5248650e+03
 1.1438740e+01   4.5251964e+03
 1.1443420e+01   4.5279387e+03
 1.1448100e+01   4.5201365e+03
 1.1452780e+01   4.5298726e+03
 1.1457460e+01   4.5187800e+03
 1.1462140e+01   4.5124304e+03
 1.1466820e+01   4.5161967e+03
 1.1471500e+01   4.5042860e+03
 1.1476180e+01   4.5095241e+03
 1.1480860e+01   4.5071263e+03
 1.1485540e+01   4.5049181e+03
 1.1490220e+01   4.5055394e+03
 1.1494900e+01   4.4978692e+03
 1.1499580e+01   4.4932508e+03
 1.1504260e+01   4.4954413e+03
 1.1508940e+01   4.4949994e+03
 1.1513620e+01   4.4951437e+03
 1.1518300e+01   4.4858370e+03
 1.1522980e+01   4.4821435e+03
 1.1527660e+01   4.4800488e+03
 1.1532340e+01   4.4739193e+03
 1.1537020e+01   4.4789796e+03
 1.1541700e+01   4.4622486e+03
 1.1546380e+01   4.4639550e+03
 1.1551060e+01   4.4667147e+03
 1.1555740e+01   4.4550968e+03
 1.1560420e+01   4.4524930e+03
 1.1565100e+01   4.4565695e+03
 1.1569780e+01   4.4377939e+03
 1.1574460e+01   4.4435770e+03
 1.1579140e+01   4.4427606e+03
 1.1583820e+01   4.4371199e+03
 1.1588500e+01   4.4375665e+03
 1.1593180e+01   4.4370361e+03
 1.1597860e+01   4.4417230e+03
 1.1602540e+01   4.4380656e+03
 1.1607220e+01   4.4431066e+03
 1.1611900e+01   4.4380224e+03
 1.1616580e+01   4.4327732e+03
 1.1621260e+01   4.4404519e+03
 1.1625940e+01   4.4326030e+03
 1.1630620e+01   4.4322480e+03
 1.1635300e+01   4.4323512e+03
 1.1639980e+01   4.4244223e+03
 1.1644660e+01   4.4205697e+03
 1.1649340e+01   4.4167622e+03
 1.1654020e+01   4.4072091e+03
 1.1658700e+01   4.4025219e+03
 1.1663380e+01   4.4089007e+03
 1.1668060e+01   4.3949023e+03
 1.1672740e+01   4.4004934e+03
 1.1677420e+01   4.3894571e+03
 1.1682100e+01   4.3850382e+03
 1.1686780e+01   4.3810718e+03
 1.1691460e+01   4.3785394e+03
 1.1696140e+01   4.3787290e+03
 1.1700820e+01   4.3838223e+03
 1.1705500e+01   4.3783559e+03
 1.1710180e+01   4.3932166e+03
 1.1714860e+01   4.3737091e+03
 1.1719540e+01   4.3658447e+03
 1.1724220e+01   4.3832384e+03
 1.1728900e+01   4.3670361e+03
 1.1733580e+01   4.3723623e+03
 1.1738260e+01   4.3631428e+03
 1.1742940e+01   4.3606043e+03
 1.1747620e+01   4.3721227e+03
 1.1752300e+01   4.3696247e+03
 1.1756980e+01   4.3703049e+03
 1.1761660e+01   4.3783551e+03
 1.1766340e+01   4.3701132e+03
 1.1771020e+01   4.3638929e+03
 1.1775700e+01   4.3705877e+03
 1.1780380e+01   4.3755901e+03
 1.1785060e+01   4.3741102e+03
 1.1789740e+01   4.3693098e+03
 1.1794420e+01   4.3828667e+03
 1.1799100e+01   4.3803951e+03
 1.1803780e+01   4.3825069e+03
 1.1808460e+01   4.3846036e+03
 1.1813140e+01   4.3755932e+03
 1.1817820e+01   4.3856679e+03
 1.1822500e+01   4.3896677e+03
 1.1827180e+01   4.3910060e+03
 1.1831860e+01   4.4026723e+03
 1.1836540e+01   4.4078544e+03
 1.1841220e+01   4.4068254e+03
 1.1845900e+01   4.4253943e+03
 1.1850580e+01   4.4318922e+03
 1.1855260e+01   4.4452221e+03
 1.1859940e+01   4.4589507e+03
 1.1864620e+01   4.4832853e+03
 1.1869300e+01   4.5119171e+03
 1.1873980e+01   4.5564426e+03
 1.1878660e+01   4.6215550e+03
 1.1883340e+01   4.7030974e+03
 1.1888020e+01   4.8100324e+03
 1.1892700e+01   4.9248721e+03
 1.1897380e+01   5.0308651e+03
 1.1902060e+01   5.0886535e+03
 1.1906740e+01   5.0999407e+03
 1.1911420e+01   5.0477905e+03
 1.1916100e+01   5.0106823e+03
 1.1920780e+01   4.8919047e+03
 1.1925460e+01   4.8060089e+03
 1.1930140e+01   4.7274037e+03
 1.1934820e+01   4.6706672e+03
 1.1939500e+01   4.6519963e+03
 1.1944180e+01   4.6207735e+03
 1.1948860e+01   4.6202292e+03
 1.1953540e+01   4.6154976e+03
 1.1958220e+01   4.6077508e+03
 1.1962900e+01   4.6109070e+03
 1.1967580e+01   4.6269864e+03
 1.1972260e+01   4.6120802e+03
 1.1976940e+01   4.6216143e+03
 1.1981620e+01   4.6145435e+03
 1.1986300e+01   4.6161177e+03
 1.1990980e+01   4.6289346e+03
 1.1995660e+01   4.6039760e+03
 1.2000340e+01   4.6108342e+03
 1.2005020e+01   4.6000633e+03
 1.2009700e+01   4.5949689e+03
 1.2014380e+01   4.5991364e+03
 1.2019060e+01   4.5863497e+03
 1.2023740e+01   4.5675254e+03
 1.2028420e+01   4.5742504e+03
 1.2033100e+01   4.5517340e+03
 1.2037780e+01   4.5401592e+03
 1.2042460e+01   4.5232381e+03
 1.2047140e+01   4.5105971e+03
 1.2051820e+01   4.5002723e+03
 1.2056500e+01   4.4840129e+03
 1.2061180e+01   4.4785567e+03
 1.2065860e+01   4.4598453e+03
 1.2070540e+01   4.4537696e+03
 1.2075220e+01   4.4459650e+03
 1.2079900e+01   4.4449709e+03
 1.2084580e+01   4.4306866e+03
 1.2089260e+01   4.4297671e+03
 1.2093940e+01   4.4155504e+03
 1.2098620e+01   4.4034237e+03
 1.2103300e+01   4.4009427e+03
 1.2107980e+01   4.4008047e+03
 1.2112660e+01   4.3885170e+03
 1.2117340e+01   4.3747333e+03
 1.2122020e+01   4.3592476e+03
 1.2126700e+01   4.3530115e+03
 1.2131380e+01   4.3316601e+03
 1.2136060e+01   4.3179123e+03
 1.2140740e+01   4.3042906e+03
 1.2145420e+01   4.2883640e+03
 1.2150100e+01   4.2882638e+03
 1.2154780e+01   4.2719419e+03
 1.2159460e+01   4.2600089e+03
 1.2164140e+01   4.2558856e+03
 1.2168820e+01   4.2343538e+03
 1.2173500e+01   4.2250136e+03
 1.2178180e+01   4.2237451e+03
 1.2182860e+01   4.2016397e+03
 1.2187540e+01   4.1979641e+03
 1.2192220e+01   4.1920301e+03
 1.2196900e+01   4.1882515e+03
 1.2201580e+01   4.1848398e+03
 1.2206260e+01   4.1663411e+03
 1.2210940e+01   4.1718679e+03
 1.2215620e+01   4.1581572e+03
 1.2220300e+01   4.1607152e+03
 1.2224980e+01   4.1504344e+03
 1.2229660e+01   4.1445787e+03
 1.2234340e+01   4.1422826e+03
 1.2239020e+01   4.1334034e+03
 1.2243700e+01   4.1384616e+03
 1.2248380e+01   4.1279782e+03
 1.2253060e+01   4.1346332e+03
 1.2257740e+01   4.1272264e+03
 1.2262420e+01   4.1330417e+03
 1.2267100e+01   4.1211720e+03
 1.2271780e+01   4.1240389e+03
 1.2276460e+01   4.1239160e+03
 1.2281140e+01   4.1248335e+03
 1.2285820e+01   4.1164300e+03
 1.2290500e+01   4.1112711e+03
 1.2295180e+01   4.1158556e+03
 1.2299860e+01   4.1112739e+03
 1.2304540e+01   4.1135478e+03
 1.2309220e+01   4.1141074e+03
 1.2313900e+01   4.1091583e+03
 1.2318580e+01   4.1121260e+03
 1.2323260e+01   4.1041079e+03
 1.2327940e+01   4.1056703e+03
 1.2332620e+01   4.1166393e+03
 1.2337300e+01   4.1192350e+03
 1.2341980e+01   4.1142122e+03
 1.2346660e+01   4.1225437e+03
 1.2351340e+01   4.1273074e+03
 1.2356020e+01   4.1273642e+03
 1.2360700e+01   4.1288339e+03
 1.2365380e+01   4.1399821e+03
 1.2370060e+01   4.1469427e+03
 1.2374740e+01   4.1518408e+03
 1.2379420e+01   4.1456095e+03
 1.2384100e+01   4.1550817e+03
 1.2388780e+01   4.1562212e+03
 1.2393460e+01   4.1582802e+03
 1.2398140e+01   4.1615114e+03
 1.2402820e+01   4.1643401e+03
 1.2407500e+01   4.1636992e+03
 1.2412180e+01   4.1580911e+03
 1.2416860e+01   4.1624733e+03
 1.2421540e+01   4.1666485e+03
 1.2426220e+01   4.1686398e+03
 1.2430900e+01   4.1638678e+03
 1.2435580e+01   4.1697619e+03
 1.2440260e+01   4.1640260e+03
 1.2444940e+01   4.1793110e+03
 1.2449620e+01   4.1790385e+03
 1.2454300e+01   4.1691171e+03
 1.2458980e+01   4.1737100e+03
 1.2463660e+01   4.1633285e+03
 1.2468340e+01   4.1715362e+03
 1.2473020e+01   4.1618464e+03
 1.2477700e+01   4.1694447e+03
 1.2482380e+01   4.1634087e+03
 1.2487060e+01   4.1568906e+03
 1.2491740e+01   4.1598126e+03
 1.2496420e+01   4.1530331e+03
 1.2501100e+01   4.1430615e+03
 1.2505780e+01   4.1455941e+03
 1.2510460e+01   4.1385853e+03
 1.2515140e+01   4.1338953e+03
 1.2519820e+01   4.1305423e+03
 1.2524500e+01   4.1306765e+03
 1.2529180e+01   4.1303951e+03
 1.2533860e+01   4.1215863e+03
 1.2538540e+01   4.1249495e+03
 1.2543220e+01   4.1241895e+03
 1.2547900e+01   4.1251854e+03
 1.2552580e+01   4.1221362e+03
 1.2557260e+01   4.1194822e+03
 1.2561940e+01   4.1164756e+03
 1.2566620e+01   4.1203533e+03
 1.2571300e+01   4.1281477e+03
 1.2575980e+01   4.1286990e+03
 1.2580660e+01   4.1307280e+03
 1.2585340e+01   4.1294182e+03
 1.2590020e+01   4.1438946e+03
 1.2594700e+01   4.1394429e+03
 1.2599380e+01   4.1473163e+03
 1.2604060e+01   4.1467502e+03
 1.2608740e+01   4.1498371e+03
 1.2613420e+01   4.1510252e+03
 1.2618100e+01   4.1628908e+03
 1.2622780e+01   4.1756828e+03
 1.2627460e+01   4.1719053e+03
 1.2632140e+01   4.1869946e+03
 1.2636820e+01   4.1944841e+03
 1.2641500e+01   4.1957863e+03
 1.2646180e+01   4.1926252e+03
 1.2650860e+01   4.2064845e+03
 1.2655540e+01   4.2173080e+03
 1.2660220e+01   4.2229979e+03
 1.2664900e+01   4.2266973e+03
 1.2669580e+01   4.2320147e+03
 1.2674260e+01   4.2392811e+03
 1.2678940e+01   4.2444006e+03
 1.2683620e+01   4.2498729e+03
 1.2688300e+01   4.2577970e+03
 1.2692980e+01   4.2607664e+03
 1.2697660e+01   4.2684941e+03
