MA2b-00004.tif Azm= 0.00
2-Theta Angle (Degrees)
Intensity
       2500
 1.0023400e+00   7.9107259e+03
 1.0070200e+00   7.9063613e+03
 1.0117000e+00   7.9062463e+03
 1.0163800e+00   7.8516777e+03
 1.0210600e+00   7.8204655e+03
 1.0257400e+00   7.7868091e+03
 1.0304199e+00   7.7738067e+03
 1.0351000e+00   7.7299819e+03
 1.0397800e+00   7.7272014e+03
 1.0444601e+00   7.6821284e+03
 1.0491400e+00   7.6279962e+03
 1.0538200e+00   7.6650661e+03
 1.0585001e+00   7.6061326e+03
 1.0631800e+00   7.5871557e+03
 1.0678600e+00   7.6073834e+03
 1.0725400e+00   7.5399090e+03
 1.0772200e+00   7.5011677e+03
 1.0819000e+00   7.5134893e+03
 1.0865800e+00   7.4887479e+03
 1.0912600e+00   7.4569599e+03
 1.0959400e+00   7.4599245e+03
 1.1006200e+00   7.4337764e+03
 1.1052999e+00   7.4274885e+03
 1.1099800e+00   7.4204537e+03
 1.1146600e+00   7.3810774e+03
 1.1193399e+00   7.3715638e+03
 1.1240200e+00   7.3440853e+03
 1.1287000e+00   7.3360074e+03
 1.1333801e+00   7.3487510e+03
 1.1380600e+00   7.2997312e+03
 1.1427400e+00   7.2850227e+03
 1.1474200e+00   7.2698735e+03
 1.1521000e+00   7.2974690e+03
 1.1567800e+00   7.2607807e+03
 1.1614600e+00   7.2229982e+03
 1.1661400e+00   7.2317796e+03
 1.1708200e+00   7.2328233e+03
 1.1755000e+00   7.1689106e+03
 1.1801800e+00   7.2148293e+03
 1.1848600e+00   7.1911701e+03
 1.1895400e+00   7.1970890e+03
 1.1942199e+00   7.1809056e+03
 1.1989000e+00   7.1666018e+03
 1.2035800e+00   7.1788027e+03
 1.2082601e+00   7.1465440e+03
 1.2129400e+00   7.1103334e+03
 1.2176200e+00   7.1180221e+03
 1.2223001e+00   7.1398053e+03
 1.2269800e+00   7.1134870e+03
 1.2316600e+00   7.1301714e+03
 1.2363400e+00   7.1459143e+03
 1.2410200e+00   7.0949419e+03
 1.2457000e+00   7.1398932e+03
 1.2503800e+00   7.1211654e+03
 1.2550600e+00   7.1131510e+03
 1.2597400e+00   7.1306575e+03
 1.2644200e+00   7.1551086e+03
 1.2691000e+00   7.1047072e+03
 1.2737800e+00   7.1292478e+03
 1.2784600e+00   7.0832452e+03
 1.2831399e+00   7.0844791e+03
 1.2878200e+00   7.1284720e+03
 1.2925000e+00   7.0939021e+03
 1.2971801e+00   7.1260855e+03
 1.3018600e+00   7.1046294e+03
 1.3065400e+00   7.1375500e+03
 1.3112200e+00   7.1385462e+03
 1.3159000e+00   7.1005642e+03
 1.3205800e+00   7.1211932e+03
 1.3252600e+00   7.1348229e+03
 1.3299400e+00   7.1250628e+03
 1.3346200e+00   7.1405227e+03
 1.3393000e+00   7.1705537e+03
 1.3439800e+00   7.1702075e+03
 1.3486600e+00   7.1830197e+03
 1.3533400e+00   7.1270411e+03
 1.3580199e+00   7.2066965e+03
 1.3627000e+00   7.1702321e+03
 1.3673800e+00   7.1541188e+03
 1.3720599e+00   7.1679420e+03
 1.3767400e+00   7.2135345e+03
 1.3814200e+00   7.1744256e+03
 1.3861001e+00   7.2039353e+03
 1.3907800e+00   7.2219076e+03
 1.3954600e+00   7.2423057e+03
 1.4001400e+00   7.2485311e+03
 1.4048200e+00   7.2598318e+03
 1.4095000e+00   7.2963189e+03
 1.4141800e+00   7.3168410e+03
 1.4188600e+00   7.3360245e+03
 1.4235400e+00   7.3414022e+03
 1.4282200e+00   7.3692800e+03
 1.4329000e+00   7.4036505e+03
 1.4375800e+00   7.3955163e+03
 1.4422600e+00   7.4364042e+03
 1.4469399e+00   7.4793760e+03
 1.4516200e+00   7.5012958e+03
 1.4563000e+00   7.5115968e+03
 1.4609801e+00   7.5167214e+03
 1.4656600e+00   7.5714461e+03
 1.4703400e+00   7.5695078e+03
 1.4750201e+00   7.5749520e+03
 1.4797000e+00   7.6041981e+03
 1.4843800e+00   7.6398763e+03
 1.4890600e+00   7.6686752e+03
 1.4937400e+00   7.6985589e+03
 1.4984200e+00   7.6985229e+03
 1.5031000e+00   7.7476423e+03
 1.5077800e+00   7.7529690e+03
 1.5124600e+00   7.7521772e+03
 1.5171400e+00   7.7715797e+03
 1.5218199e+00   7.7869724e+03
 1.5265000e+00   7.7839656e+03
 1.5311800e+00   7.7726961e+03
 1.5358599e+00   7.7607219e+03
 1.5405400e+00   7.7676265e+03
 1.5452200e+00   7.7488560e+03
 1.5499001e+00   7.7776239e+03
 1.5545800e+00   7.7284965e+03
 1.5592600e+00   7.7597989e+03
 1.5639400e+00   7.7226627e+03
 1.5686200e+00   7.7292598e+03
 1.5733000e+00   7.7530519e+03
 1.5779800e+00   7.6994738e+03
 1.5826600e+00   7.6834922e+03
 1.5873400e+00   7.6851817e+03
 1.5920200e+00   7.7024809e+03
 1.5967000e+00   7.7052706e+03
 1.6013800e+00   7.6706094e+03
 1.6060600e+00   7.7103302e+03
 1.6107399e+00   7.6771056e+03
 1.6154200e+00   7.7145868e+03
 1.6201000e+00   7.6885116e+03
 1.6247801e+00   7.7008987e+03
 1.6294600e+00   7.6847405e+03
 1.6341400e+00   7.6938892e+03
 1.6388201e+00   7.7028938e+03
 1.6435000e+00   7.6977567e+03
 1.6481800e+00   7.7081584e+03
 1.6528600e+00   7.7160901e+03
 1.6575400e+00   7.6996608e+03
 1.6622200e+00   7.6997348e+03
 1.6669000e+00   7.7059704e+03
 1.6715800e+00   7.6986418e+03
 1.6762600e+00   7.6988116e+03
 1.6809400e+00   7.7156704e+03
 1.6856200e+00   7.7116297e+03
 1.6903000e+00   7.7053806e+03
 1.6949800e+00   7.7058512e+03
 1.6996599e+00   7.7135950e+03
 1.7043400e+00   7.6827497e+03
 1.7090200e+00   7.7292999e+03
 1.7137001e+00   7.7054639e+03
 1.7183800e+00   7.7198341e+03
 1.7230600e+00   7.7159642e+03
 1.7277400e+00   7.7399815e+03
 1.7324200e+00   7.7541497e+03
 1.7371000e+00   7.7340961e+03
 1.7417800e+00   7.7282741e+03
 1.7464600e+00   7.7325022e+03
 1.7511400e+00   7.7330305e+03
 1.7558200e+00   7.7829808e+03
 1.7605000e+00   7.7710018e+03
 1.7651800e+00   7.7767052e+03
 1.7698600e+00   7.7964106e+03
 1.7745399e+00   7.7784751e+03
 1.7792200e+00   7.8105039e+03
 1.7839000e+00   7.8289274e+03
 1.7885799e+00   7.8129198e+03
 1.7932600e+00   7.8346107e+03
 1.7979400e+00   7.8405523e+03
 1.8026201e+00   7.8605593e+03
 1.8073000e+00   7.8624083e+03
 1.8119800e+00   7.9090536e+03
 1.8166600e+00   7.8994335e+03
 1.8213400e+00   7.9295245e+03
 1.8260200e+00   7.9269956e+03
 1.8307000e+00   7.9705932e+03
 1.8353800e+00   7.9879594e+03
 1.8400600e+00   7.9917356e+03
 1.8447400e+00   7.9993880e+03
 1.8494200e+00   8.0150849e+03
 1.8541000e+00   8.0391179e+03
 1.8587800e+00   8.0840257e+03
 1.8634599e+00   8.1008894e+03
 1.8681400e+00   8.1039594e+03
 1.8728200e+00   8.1456358e+03
 1.8775001e+00   8.1285122e+03
 1.8821800e+00   8.1955851e+03
 1.8868600e+00   8.2095211e+03
 1.8915401e+00   8.2359334e+03
 1.8962200e+00   8.2420496e+03
 1.9009000e+00   8.2682809e+03
 1.9055800e+00   8.2863874e+03
 1.9102600e+00   8.3154837e+03
 1.9149400e+00   8.3280901e+03
 1.9196200e+00   8.3384885e+03
 1.9243000e+00   8.3762232e+03
 1.9289800e+00   8.3913874e+03
 1.9336600e+00   8.4230342e+03
 1.9383399e+00   8.4407776e+03
 1.9430200e+00   8.4971158e+03
 1.9477000e+00   8.5174964e+03
 1.9523799e+00   8.5153279e+03
 1.9570600e+00   8.5518642e+03
 1.9617400e+00   8.6002538e+03
 1.9664201e+00   8.6029195e+03
 1.9711000e+00   8.6372479e+03
 1.9757800e+00   8.6550540e+03
 1.9804600e+00   8.6780780e+03
 1.9851400e+00   8.6918765e+03
 1.9898200e+00   8.7237457e+03
 1.9945000e+00   8.7433840e+03
 1.9991800e+00   8.7823718e+03
 2.0038600e+00   8.7951929e+03
 2.0085399e+00   8.8333881e+03
 2.0132201e+00   8.8439236e+03
 2.0179000e+00   8.8927902e+03
 2.0225799e+00   8.9163703e+03
 2.0272601e+00   8.9323860e+03
 2.0319400e+00   8.9600645e+03
 2.0366199e+00   8.9934019e+03
 2.0413001e+00   9.0229931e+03
 2.0459800e+00   9.0490517e+03
 2.0506599e+00   9.0973468e+03
 2.0553401e+00   9.1136473e+03
 2.0600200e+00   9.1694121e+03
 2.0646999e+00   9.1884650e+03
 2.0693800e+00   9.2513817e+03
 2.0740600e+00   9.3204003e+03
 2.0787399e+00   9.3766914e+03
 2.0834200e+00   9.4405823e+03
 2.0881000e+00   9.5681618e+03
 2.0927801e+00   9.7170923e+03
 2.0974600e+00   9.9093361e+03
 2.1021399e+00   1.0179839e+04
 2.1068201e+00   1.0479388e+04
 2.1115000e+00   1.1009422e+04
 2.1161799e+00   1.1688404e+04
 2.1208601e+00   1.2743445e+04
 2.1255400e+00   1.4137747e+04
 2.1302199e+00   1.6053327e+04
 2.1349001e+00   1.8285309e+04
 2.1395800e+00   2.0745591e+04
 2.1442599e+00   2.3051267e+04
 2.1489401e+00   2.5051905e+04
 2.1536200e+00   2.6196127e+04
 2.1582999e+00   2.6619410e+04
 2.1629801e+00   2.6445525e+04
 2.1676600e+00   2.5817762e+04
 2.1723399e+00   2.4853447e+04
 2.1770201e+00   2.3762509e+04
 2.1817000e+00   2.2529591e+04
 2.1863799e+00   2.1289489e+04
 2.1910601e+00   1.9939327e+04
 2.1957400e+00   1.8710874e+04
 2.2004199e+00   1.7419313e+04
 2.2051001e+00   1.6335901e+04
 2.2097800e+00   1.5387979e+04
 2.2144599e+00   1.4673139e+04
 2.2191401e+00   1.4022991e+04
 2.2238200e+00   1.3622359e+04
 2.2284999e+00   1.3225327e+04
 2.2331800e+00   1.2955036e+04
 2.2378600e+00   1.2692692e+04
 2.2425399e+00   1.2457130e+04
 2.2472200e+00   1.2164258e+04
 2.2519000e+00   1.1861729e+04
 2.2565801e+00   1.1581995e+04
 2.2612600e+00   1.1338135e+04
 2.2659400e+00   1.1028338e+04
 2.2706201e+00   1.0864671e+04
 2.2753000e+00   1.0709269e+04
 2.2799799e+00   1.0604645e+04
 2.2846601e+00   1.0543733e+04
 2.2893400e+00   1.0518755e+04
 2.2940199e+00   1.0489187e+04
 2.2987001e+00   1.0472520e+04
 2.3033800e+00   1.0482572e+04
 2.3080599e+00   1.0467082e+04
 2.3127401e+00   1.0490397e+04
 2.3174200e+00   1.0492603e+04
 2.3220999e+00   1.0526169e+04
 2.3267801e+00   1.0540707e+04
 2.3314600e+00   1.0550349e+04
 2.3361399e+00   1.0583321e+04
 2.3408201e+00   1.0597812e+04
 2.3455000e+00   1.0624378e+04
 2.3501799e+00   1.0656808e+04
 2.3548601e+00   1.0697301e+04
 2.3595400e+00   1.0744239e+04
 2.3642199e+00   1.0742220e+04
 2.3689001e+00   1.0776305e+04
 2.3735800e+00   1.0814163e+04
 2.3782599e+00   1.0854340e+04
 2.3829401e+00   1.0860059e+04
 2.3876200e+00   1.0902707e+04
 2.3922999e+00   1.0950206e+04
 2.3969800e+00   1.0965852e+04
 2.4016600e+00   1.1013821e+04
 2.4063399e+00   1.1051318e+04
 2.4110200e+00   1.1087193e+04
 2.4157000e+00   1.1109741e+04
 2.4203801e+00   1.1165778e+04
 2.4250600e+00   1.1170481e+04
 2.4297400e+00   1.1215645e+04
 2.4344201e+00   1.1262623e+04
 2.4391000e+00   1.1279976e+04
 2.4437799e+00   1.1335995e+04
 2.4484601e+00   1.1370454e+04
 2.4531400e+00   1.1394995e+04
 2.4578199e+00   1.1413910e+04
 2.4625001e+00   1.1466899e+04
 2.4671800e+00   1.1501838e+04
 2.4718599e+00   1.1542995e+04
 2.4765401e+00   1.1572517e+04
 2.4812200e+00   1.1621840e+04
 2.4858999e+00   1.1647773e+04
 2.4905801e+00   1.1708105e+04
 2.4952600e+00   1.1734769e+04
 2.4999399e+00   1.1774951e+04
 2.5046201e+00   1.1799519e+04
 2.5093000e+00   1.1829419e+04
 2.5139799e+00   1.1890086e+04
 2.5186601e+00   1.1940326e+04
 2.5233400e+00   1.1948483e+04
 2.5280199e+00   1.1993839e+04
 2.5327001e+00   1.2026046e+04
 2.5373800e+00   1.2061337e+04
 2.5420599e+00   1.2103754e+04
 2.5467401e+00   1.2132357e+04
 2.5514200e+00   1.2145087e+04
 2.5560999e+00   1.2169347e+04
 2.5607800e+00   1.2206401e+04
 2.5654600e+00   1.2273331e+04
 2.5701399e+00   1.2297338e+04
 2.5748200e+00   1.2318503e+04
 2.5795000e+00   1.2333582e+04
 2.5841801e+00   1.2373203e+04
 2.5888600e+00   1.2395017e+04
 2.5935400e+00   1.2431752e+04
 2.5982201e+00   1.2463092e+04
 2.6029000e+00   1.2478118e+04
 2.6075799e+00   1.2520588e+04
 2.6122601e+00   1.2527316e+04
 2.6169400e+00   1.2549963e+04
 2.6216199e+00   1.2569904e+04
 2.6263001e+00   1.2591948e+04
 2.6309800e+00   1.2612968e+04
 2.6356599e+00   1.2646130e+04
 2.6403401e+00   1.2655278e+04
 2.6450200e+00   1.2667461e+04
 2.6496999e+00   1.2688078e+04
 2.6543801e+00   1.2707369e+04
 2.6590600e+00   1.2710268e+04
 2.6637399e+00   1.2729648e+04
 2.6684201e+00   1.2734679e+04
 2.6731000e+00   1.2736913e+04
 2.6777799e+00   1.2771517e+04
 2.6824601e+00   1.2770501e+04
 2.6871400e+00   1.2769546e+04
 2.6918199e+00   1.2782793e+04
 2.6965001e+00   1.2796374e+04
 2.7011800e+00   1.2800364e+04
 2.7058599e+00   1.2810367e+04
 2.7105401e+00   1.2819460e+04
 2.7152200e+00   1.2811328e+04
 2.7198999e+00   1.2816302e+04
 2.7245800e+00   1.2838236e+04
 2.7292600e+00   1.2820932e+04
 2.7339399e+00   1.2821118e+04
 2.7386200e+00   1.2837023e+04
 2.7433000e+00   1.2829763e+04
 2.7479801e+00   1.2803875e+04
 2.7526600e+00   1.2807166e+04
 2.7573400e+00   1.2796418e+04
 2.7620201e+00   1.2804776e+04
 2.7667000e+00   1.2790539e+04
 2.7713799e+00   1.2775051e+04
 2.7760601e+00   1.2779813e+04
 2.7807400e+00   1.2774063e+04
 2.7854199e+00   1.2779008e+04
 2.7901001e+00   1.2779172e+04
 2.7947800e+00   1.2744526e+04
 2.7994599e+00   1.2755730e+04
 2.8041401e+00   1.2745543e+04
 2.8088200e+00   1.2725480e+04
 2.8134999e+00   1.2704067e+04
 2.8181801e+00   1.2690878e+04
 2.8228600e+00   1.2665002e+04
 2.8275399e+00   1.2646807e+04
 2.8322201e+00   1.2644146e+04
 2.8369000e+00   1.2614631e+04
 2.8415799e+00   1.2601165e+04
 2.8462601e+00   1.2625630e+04
 2.8509400e+00   1.2600807e+04
 2.8556199e+00   1.2573045e+04
 2.8603001e+00   1.2556467e+04
 2.8649800e+00   1.2546148e+04
 2.8696599e+00   1.2532562e+04
 2.8743401e+00   1.2504238e+04
 2.8790200e+00   1.2502410e+04
 2.8836999e+00   1.2469319e+04
 2.8883801e+00   1.2456209e+04
 2.8930600e+00   1.2454716e+04
 2.8977399e+00   1.2428079e+04
 2.9024200e+00   1.2409225e+04
 2.9071000e+00   1.2395255e+04
 2.9117801e+00   1.2347230e+04
 2.9164600e+00   1.2351848e+04
 2.9211400e+00   1.2323513e+04
 2.9258201e+00   1.2310114e+04
 2.9305000e+00   1.2283632e+04
 2.9351799e+00   1.2284559e+04
 2.9398601e+00   1.2247606e+04
 2.9445400e+00   1.2255868e+04
 2.9492199e+00   1.2210521e+04
 2.9539001e+00   1.2201744e+04
 2.9585800e+00   1.2186353e+04
 2.9632599e+00   1.2148191e+04
 2.9679401e+00   1.2132886e+04
 2.9726200e+00   1.2116108e+04
 2.9772999e+00   1.2080803e+04
 2.9819801e+00   1.2060321e+04
 2.9866600e+00   1.2026997e+04
 2.9913399e+00   1.2030405e+04
 2.9960201e+00   1.1992846e+04
 3.0007000e+00   1.1956514e+04
 3.0053799e+00   1.1931535e+04
 3.0100601e+00   1.1888613e+04
 3.0147400e+00   1.1873138e+04
 3.0194199e+00   1.1863543e+04
 3.0241001e+00   1.1841294e+04
 3.0287800e+00   1.1810828e+04
 3.0334599e+00   1.1788841e+04
 3.0381401e+00   1.1768604e+04
 3.0428200e+00   1.1737818e+04
 3.0474999e+00   1.1684334e+04
 3.0521801e+00   1.1666446e+04
 3.0568600e+00   1.1621462e+04
 3.0615399e+00   1.1605617e+04
 3.0662200e+00   1.1556772e+04
 3.0709000e+00   1.1553387e+04
 3.0755799e+00   1.1517308e+04
 3.0802600e+00   1.1515124e+04
 3.0849400e+00   1.1487277e+04
 3.0896201e+00   1.1448657e+04
 3.0943000e+00   1.1433563e+04
 3.0989799e+00   1.1416232e+04
 3.1036601e+00   1.1383556e+04
 3.1083400e+00   1.1376960e+04
 3.1130199e+00   1.1324468e+04
 3.1177001e+00   1.1317806e+04
 3.1223800e+00   1.1298910e+04
 3.1270599e+00   1.1272133e+04
 3.1317401e+00   1.1242832e+04
 3.1364200e+00   1.1256322e+04
 3.1410999e+00   1.1225690e+04
 3.1457801e+00   1.1206266e+04
 3.1504600e+00   1.1194679e+04
 3.1551399e+00   1.1149863e+04
 3.1598201e+00   1.1147162e+04
 3.1645000e+00   1.1115427e+04
 3.1691799e+00   1.1112866e+04
 3.1738601e+00   1.1083840e+04
 3.1785400e+00   1.1105564e+04
 3.1832199e+00   1.1059870e+04
 3.1879001e+00   1.1082798e+04
 3.1925800e+00   1.1043025e+04
 3.1972599e+00   1.1041639e+04
 3.2019401e+00   1.0992808e+04
 3.2066200e+00   1.1010351e+04
 3.2112999e+00   1.1003878e+04
 3.2159801e+00   1.0955925e+04
 3.2206600e+00   1.0929603e+04
 3.2253399e+00   1.0943477e+04
 3.2300200e+00   1.0890042e+04
 3.2347000e+00   1.0906687e+04
 3.2393799e+00   1.0899956e+04
 3.2440600e+00   1.0873863e+04
 3.2487400e+00   1.0860620e+04
 3.2534201e+00   1.0855644e+04
 3.2581000e+00   1.0825800e+04
 3.2627800e+00   1.0860955e+04
 3.2674601e+00   1.0827075e+04
 3.2721400e+00   1.0806624e+04
 3.2768199e+00   1.0818859e+04
 3.2815001e+00   1.0783240e+04
 3.2861800e+00   1.0774369e+04
 3.2908599e+00   1.0767969e+04
 3.2955401e+00   1.0779544e+04
 3.3002200e+00   1.0754651e+04
 3.3048999e+00   1.0768484e+04
 3.3095801e+00   1.0749597e+04
 3.3142600e+00   1.0778150e+04
 3.3189399e+00   1.0754540e+04
 3.3236201e+00   1.0746263e+04
 3.3283000e+00   1.0737638e+04
 3.3329799e+00   1.0745940e+04
 3.3376601e+00   1.0732561e+04
 3.3423400e+00   1.0727194e+04
 3.3470199e+00   1.0702585e+04
 3.3517001e+00   1.0735180e+04
 3.3563800e+00   1.0695087e+04
 3.3610599e+00   1.0722731e+04
 3.3657401e+00   1.0715825e+04
 3.3704200e+00   1.0699925e+04
 3.3750999e+00   1.0687985e+04
 3.3797801e+00   1.0713637e+04
 3.3844600e+00   1.0698638e+04
 3.3891399e+00   1.0709551e+04
 3.3938200e+00   1.0715697e+04
 3.3985000e+00   1.0697678e+04
 3.4031799e+00   1.0725712e+04
 3.4078600e+00   1.0681319e+04
 3.4125400e+00   1.0718568e+04
 3.4172201e+00   1.0707561e+04
 3.4219000e+00   1.0708098e+04
 3.4265800e+00   1.0745138e+04
 3.4312601e+00   1.0692734e+04
 3.4359400e+00   1.0717505e+04
 3.4406199e+00   1.0728093e+04
 3.4453001e+00   1.0711306e+04
 3.4499800e+00   1.0756543e+04
 3.4546599e+00   1.0712623e+04
 3.4593401e+00   1.0712544e+04
 3.4640200e+00   1.0753294e+04
 3.4686999e+00   1.0704919e+04
 3.4733801e+00   1.0734855e+04
 3.4780600e+00   1.0753743e+04
 3.4827399e+00   1.0710359e+04
 3.4874201e+00   1.0727928e+04
 3.4921000e+00   1.0726911e+04
 3.4967799e+00   1.0678576e+04
 3.5014601e+00   1.0708771e+04
 3.5061400e+00   1.0709567e+04
 3.5108199e+00   1.0685136e+04
 3.5155001e+00   1.0729620e+04
 3.5201800e+00   1.0708985e+04
 3.5248599e+00   1.0697486e+04
 3.5295401e+00   1.0745764e+04
 3.5342200e+00   1.0693697e+04
 3.5388999e+00   1.0743184e+04
 3.5435801e+00   1.0736636e+04
 3.5482600e+00   1.0666334e+04
 3.5529399e+00   1.0722826e+04
 3.5576200e+00   1.0705733e+04
 3.5623000e+00   1.0703456e+04
 3.5669799e+00   1.0737534e+04
 3.5716600e+00   1.0720487e+04
 3.5763400e+00   1.0708443e+04
 3.5810201e+00   1.0742871e+04
 3.5857000e+00   1.0674094e+04
 3.5903800e+00   1.0719724e+04
 3.5950601e+00   1.0718270e+04
 3.5997400e+00   1.0662541e+04
 3.6044199e+00   1.0714058e+04
 3.6091001e+00   1.0708423e+04
 3.6137800e+00   1.0663937e+04
 3.6184599e+00   1.0713944e+04
 3.6231401e+00   1.0656577e+04
 3.6278200e+00   1.0639272e+04
 3.6324999e+00   1.0699915e+04
 3.6371801e+00   1.0611574e+04
 3.6418600e+00   1.0699035e+04
 3.6465399e+00   1.0679637e+04
 3.6512201e+00   1.0616841e+04
 3.6559000e+00   1.0707720e+04
 3.6605799e+00   1.0652864e+04
 3.6652601e+00   1.0634278e+04
 3.6699400e+00   1.0671129e+04
 3.6746199e+00   1.0554117e+04
 3.6793001e+00   1.0585096e+04
 3.6839800e+00   1.0602752e+04
 3.6886599e+00   1.0487015e+04
 3.6933401e+00   1.0560988e+04
 3.6980200e+00   1.0470177e+04
 3.7026999e+00   1.0422267e+04
 3.7073801e+00   1.0521812e+04
 3.7120600e+00   1.0375490e+04
 3.7167399e+00   1.0381019e+04
 3.7214200e+00   1.0449771e+04
 3.7261000e+00   1.0264202e+04
 3.7307799e+00   1.0296595e+04
 3.7354600e+00   1.0256216e+04
 3.7401400e+00   1.0189763e+04
 3.7448201e+00   1.0184167e+04
 3.7495000e+00   1.0147201e+04
 3.7541800e+00   1.0027392e+04
 3.7588601e+00   1.0082964e+04
 3.7635400e+00   9.9160752e+03
 3.7682199e+00   9.9443479e+03
 3.7729001e+00   9.8934012e+03
 3.7775800e+00   9.7925043e+03
 3.7822599e+00   9.7883284e+03
 3.7869401e+00   9.8238967e+03
 3.7916200e+00   9.6319645e+03
 3.7962999e+00   9.8204471e+03
 3.8009801e+00   9.6627358e+03
 3.8056600e+00   9.6572016e+03
 3.8103399e+00   9.6651110e+03
 3.8150201e+00   9.5577897e+03
 3.8197000e+00   9.5780613e+03
 3.8243799e+00   9.6153475e+03
 3.8290601e+00   9.5088505e+03
 3.8337400e+00   9.5432959e+03
 3.8384199e+00   9.5117255e+03
 3.8431001e+00   9.3557655e+03
 3.8477800e+00   9.5388564e+03
 3.8524599e+00   9.3593347e+03
 3.8571401e+00   9.4004517e+03
 3.8618200e+00   9.3570562e+03
 3.8664999e+00   9.2900769e+03
 3.8711801e+00   9.3446396e+03
 3.8758600e+00   9.2659009e+03
 3.8805399e+00   9.1706574e+03
 3.8852201e+00   9.2968267e+03
 3.8899000e+00   9.1595227e+03
 3.8945799e+00   9.1018432e+03
 3.8992600e+00   9.1448861e+03
 3.9039400e+00   9.0779424e+03
 3.9086201e+00   8.9714402e+03
 3.9133000e+00   9.0547384e+03
 3.9179800e+00   8.9396426e+03
 3.9226601e+00   8.9519606e+03
 3.9273400e+00   8.9492000e+03
 3.9320199e+00   8.8814192e+03
 3.9367001e+00   8.8794794e+03
 3.9413800e+00   8.8699205e+03
 3.9460599e+00   8.7814898e+03
 3.9507401e+00   8.8204029e+03
 3.9554200e+00   8.7956077e+03
 3.9600999e+00   8.7428721e+03
 3.9647801e+00   8.7278220e+03
 3.9694600e+00   8.6802962e+03
 3.9741399e+00   8.6581891e+03
 3.9788201e+00   8.6750724e+03
 3.9835000e+00   8.6308503e+03
 3.9881799e+00   8.6162741e+03
 3.9928601e+00   8.5769389e+03
 3.9975400e+00   8.5094819e+03
 4.0022202e+00   8.5884982e+03
 4.0068998e+00   8.4577055e+03
 4.0115800e+00   8.5313961e+03
 4.0162601e+00   8.5050449e+03
 4.0209398e+00   8.4030032e+03
 4.0256200e+00   8.4280318e+03
 4.0303001e+00   8.4085766e+03
 4.0349798e+00   8.3548227e+03
 4.0396600e+00   8.4484283e+03
 4.0443401e+00   8.2908890e+03
 4.0490198e+00   8.2978861e+03
 4.0537000e+00   8.3169647e+03
 4.0583801e+00   8.2595622e+03
 4.0630598e+00   8.2566229e+03
 4.0677400e+00   8.2889195e+03
 4.0724201e+00   8.1926570e+03
 4.0770998e+00   8.2573577e+03
 4.0817800e+00   8.1873791e+03
 4.0864601e+00   8.1662749e+03
 4.0911398e+00   8.2472664e+03
 4.0958200e+00   8.1064240e+03
 4.1005001e+00   8.1527492e+03
 4.1051798e+00   8.1092498e+03
 4.1098599e+00   8.0863902e+03
 4.1145401e+00   8.1228816e+03
 4.1192198e+00   8.0813479e+03
 4.1238999e+00   8.0151437e+03
 4.1285801e+00   8.1153172e+03
 4.1332598e+00   7.9889893e+03
 4.1379399e+00   8.0578295e+03
 4.1426201e+00   8.0367904e+03
 4.1472998e+00   7.9533246e+03
 4.1519799e+00   7.9678994e+03
 4.1566601e+00   7.9778843e+03
 4.1613402e+00   7.8827514e+03
 4.1660199e+00   8.0118651e+03
 4.1707001e+00   7.8692616e+03
 4.1753802e+00   7.8677290e+03
 4.1800599e+00   7.9016751e+03
 4.1847401e+00   7.8429581e+03
 4.1894202e+00   7.8900646e+03
 4.1940999e+00   7.8776699e+03
 4.1987801e+00   7.8189465e+03
 4.2034602e+00   7.9527485e+03
 4.2081399e+00   7.8565947e+03
 4.2128201e+00   7.8749754e+03
 4.2175002e+00   8.0028395e+03
 4.2221799e+00   7.8598222e+03
 4.2268600e+00   7.8611919e+03
 4.2315402e+00   7.8849345e+03
 4.2362199e+00   7.7796908e+03
 4.2409000e+00   7.9013796e+03
 4.2455802e+00   7.8921481e+03
 4.2502599e+00   7.8531030e+03
 4.2549400e+00   7.9887562e+03
 4.2596202e+00   7.9894088e+03
 4.2642999e+00   8.0816787e+03
 4.2689800e+00   8.2382204e+03
 4.2736602e+00   8.4632103e+03
 4.2783399e+00   8.6090923e+03
 4.2830200e+00   8.7606522e+03
 4.2877002e+00   8.9034893e+03
 4.2923799e+00   9.1138079e+03
 4.2970600e+00   9.1974323e+03
 4.3017402e+00   9.2067816e+03
 4.3064198e+00   9.2670814e+03
 4.3111000e+00   9.2155306e+03
 4.3157802e+00   9.1850232e+03
 4.3204598e+00   9.1366624e+03
 4.3251400e+00   9.0036248e+03
 4.3298202e+00   8.9791299e+03
 4.3344998e+00   8.9160431e+03
 4.3391800e+00   8.8684611e+03
 4.3438601e+00   8.8888757e+03
 4.3485398e+00   8.8197280e+03
 4.3532200e+00   8.8040174e+03
 4.3579001e+00   8.7911774e+03
 4.3625798e+00   8.6369821e+03
 4.3672600e+00   8.6349195e+03
 4.3719401e+00   8.4920658e+03
 4.3766198e+00   8.4654346e+03
 4.3813000e+00   8.3659427e+03
 4.3859801e+00   8.3237291e+03
 4.3906598e+00   8.1546780e+03
 4.3953400e+00   8.1769985e+03
 4.4000201e+00   8.0077492e+03
 4.4046998e+00   8.0558719e+03
 4.4093800e+00   7.9153860e+03
 4.4140601e+00   7.8927700e+03
 4.4187398e+00   7.8808059e+03
 4.4234200e+00   7.8095328e+03
 4.4281001e+00   7.7353388e+03
 4.4327798e+00   7.8077811e+03
 4.4374599e+00   7.7110708e+03
 4.4421401e+00   7.7035544e+03
 4.4468198e+00   7.6911191e+03
 4.4514999e+00   7.6101860e+03
 4.4561801e+00   7.6357193e+03
 4.4608598e+00   7.6036333e+03
 4.4655399e+00   7.5619785e+03
 4.4702201e+00   7.5847248e+03
 4.4748998e+00   7.5454814e+03
 4.4795799e+00   7.5063579e+03
 4.4842601e+00   7.5262162e+03
 4.4889398e+00   7.4633015e+03
 4.4936199e+00   7.4417636e+03
 4.4983001e+00   7.4269240e+03
 4.5029802e+00   7.3550044e+03
 4.5076599e+00   7.3225009e+03
 4.5123401e+00   7.2861056e+03
 4.5170202e+00   7.1796588e+03
 4.5216999e+00   7.2095712e+03
 4.5263801e+00   7.1346400e+03
 4.5310602e+00   7.0920041e+03
 4.5357399e+00   7.0915791e+03
 4.5404201e+00   7.0394434e+03
 4.5451002e+00   7.0192117e+03
 4.5497799e+00   7.0048790e+03
 4.5544600e+00   6.9590633e+03
 4.5591402e+00   6.9804781e+03
 4.5638199e+00   6.9383648e+03
 4.5685000e+00   6.8851290e+03
 4.5731802e+00   6.9325906e+03
 4.5778599e+00   6.8850884e+03
 4.5825400e+00   6.8841732e+03
 4.5872202e+00   6.8628342e+03
 4.5918999e+00   6.8398302e+03
 4.5965800e+00   6.8246124e+03
 4.6012602e+00   6.8114592e+03
 4.6059399e+00   6.8037209e+03
 4.6106200e+00   6.7756407e+03
 4.6153002e+00   6.7799359e+03
 4.6199799e+00   6.7451200e+03
 4.6246600e+00   6.7334342e+03
 4.6293402e+00   6.7345465e+03
 4.6340199e+00   6.7114191e+03
 4.6387000e+00   6.7196736e+03
 4.6433802e+00   6.6800800e+03
 4.6480598e+00   6.6761760e+03
 4.6527400e+00   6.6525844e+03
 4.6574202e+00   6.6289732e+03
 4.6620998e+00   6.6503268e+03
 4.6667800e+00   6.6308821e+03
 4.6714602e+00   6.6216214e+03
 4.6761398e+00   6.6189915e+03
 4.6808200e+00   6.5947610e+03
 4.6855001e+00   6.5768514e+03
 4.6901798e+00   6.5879919e+03
 4.6948600e+00   6.6095948e+03
 4.6995401e+00   6.5994564e+03
 4.7042198e+00   6.6081320e+03
 4.7089000e+00   6.5938778e+03
 4.7135801e+00   6.6594558e+03
 4.7182598e+00   6.6578015e+03
 4.7229400e+00   6.7465712e+03
 4.7276201e+00   6.7521613e+03
 4.7322998e+00   6.8177857e+03
 4.7369800e+00   6.8690024e+03
 4.7416601e+00   6.9100834e+03
 4.7463398e+00   6.9542903e+03
 4.7510200e+00   7.0271585e+03
 4.7557001e+00   7.0542073e+03
 4.7603798e+00   7.1431288e+03
 4.7650599e+00   7.2157270e+03
 4.7697401e+00   7.3277260e+03
 4.7744198e+00   7.4526354e+03
 4.7790999e+00   7.6231356e+03
 4.7837801e+00   7.7641097e+03
 4.7884598e+00   8.0043228e+03
 4.7931399e+00   8.2018181e+03
 4.7978201e+00   8.4223466e+03
 4.8024998e+00   8.6390172e+03
 4.8071799e+00   8.8305655e+03
 4.8118601e+00   8.9981428e+03
 4.8165398e+00   9.0951673e+03
 4.8212199e+00   9.2174119e+03
 4.8259001e+00   9.2551332e+03
 4.8305802e+00   9.2513520e+03
 4.8352599e+00   9.2122032e+03
 4.8399401e+00   9.1151828e+03
 4.8446202e+00   8.9360639e+03
 4.8492999e+00   8.7191659e+03
 4.8539801e+00   8.4727590e+03
 4.8586602e+00   8.2015198e+03
 4.8633399e+00   7.9526207e+03
 4.8680201e+00   7.7258397e+03
 4.8727002e+00   7.5282868e+03
 4.8773799e+00   7.3994340e+03
 4.8820601e+00   7.3188324e+03
 4.8867402e+00   7.2544129e+03
 4.8914199e+00   7.2783821e+03
 4.8961000e+00   7.3362612e+03
 4.9007802e+00   7.3754152e+03
 4.9054599e+00   7.4567450e+03
 4.9101400e+00   7.5717794e+03
 4.9148202e+00   7.6668456e+03
 4.9194999e+00   7.7641991e+03
 4.9241800e+00   7.8612517e+03
 4.9288602e+00   7.9547746e+03
 4.9335399e+00   8.0277176e+03
 4.9382200e+00   8.1259416e+03
 4.9429002e+00   8.1981212e+03
 4.9475799e+00   8.3165552e+03
 4.9522600e+00   8.4159048e+03
 4.9569402e+00   8.5434642e+03
 4.9616199e+00   8.6635569e+03
 4.9663000e+00   8.8138722e+03
 4.9709802e+00   8.9259061e+03
 4.9756598e+00   9.0692336e+03
 4.9803400e+00   9.1817285e+03
 4.9850202e+00   9.2800619e+03
 4.9896998e+00   9.3033005e+03
 4.9943800e+00   9.2855276e+03
 4.9990602e+00   9.2163026e+03
 5.0037398e+00   9.0835500e+03
 5.0084200e+00   8.8998035e+03
 5.0131001e+00   8.6732222e+03
 5.0177798e+00   8.4231581e+03
 5.0224600e+00   8.1812509e+03
 5.0271401e+00   7.9029419e+03
 5.0318198e+00   7.6466384e+03
 5.0365000e+00   7.4503869e+03
 5.0411801e+00   7.2434509e+03
 5.0458598e+00   7.0872830e+03
 5.0505400e+00   6.9383425e+03
 5.0552201e+00   6.8453753e+03
 5.0598998e+00   6.7471666e+03
 5.0645800e+00   6.7020817e+03
 5.0692601e+00   6.6815584e+03
 5.0739398e+00   6.6938944e+03
 5.0786200e+00   6.7588482e+03
 5.0833001e+00   6.8799373e+03
 5.0879798e+00   6.9518547e+03
 5.0926600e+00   7.0635881e+03
 5.0973401e+00   7.1721565e+03
 5.1020198e+00   7.5482335e+03
 5.1066999e+00   7.9249346e+03
 5.1113801e+00   7.9548683e+03
 5.1160598e+00   7.7870193e+03
 5.1207399e+00   8.0510769e+03
 5.1254201e+00   8.6473592e+03
 5.1300998e+00   1.0084731e+04
 5.1347799e+00   1.1247905e+04
 5.1394601e+00   1.2762538e+04
 5.1441398e+00   1.3095200e+04
 5.1488199e+00   1.3227618e+04
 5.1535001e+00   1.2028766e+04
 5.1581802e+00   1.1110230e+04
 5.1628599e+00   9.7167708e+03
 5.1675401e+00   8.6211282e+03
 5.1722202e+00   7.6730709e+03
 5.1768999e+00   7.0993725e+03
 5.1815801e+00   6.7080113e+03
 5.1862602e+00   6.6450797e+03
 5.1909399e+00   6.6858748e+03
 5.1956201e+00   6.6150924e+03
 5.2003002e+00   6.5233574e+03
 5.2049799e+00   6.3370095e+03
 5.2096601e+00   6.2794209e+03
 5.2143402e+00   6.2660941e+03
 5.2190199e+00   6.2351778e+03
 5.2237000e+00   6.1704533e+03
 5.2283802e+00   6.0975846e+03
 5.2330599e+00   6.0882594e+03
 5.2377400e+00   6.0582347e+03
 5.2424202e+00   6.0159125e+03
 5.2470999e+00   6.0033786e+03
 5.2517800e+00   5.9632222e+03
 5.2564602e+00   5.9663650e+03
 5.2611399e+00   5.9275493e+03
 5.2658200e+00   5.9143409e+03
 5.2705002e+00   5.9278206e+03
 5.2751799e+00   5.8927957e+03
 5.2798600e+00   5.8864339e+03
 5.2845402e+00   5.8744544e+03
 5.2892199e+00   5.8663571e+03
 5.2939000e+00   5.8692943e+03
 5.2985802e+00   5.8688935e+03
 5.3032598e+00   5.8527880e+03
 5.3079400e+00   5.8546409e+03
 5.3126202e+00   5.8459451e+03
 5.3172998e+00   5.8560651e+03
 5.3219800e+00   5.8332160e+03
 5.3266602e+00   5.8302547e+03
 5.3313398e+00   5.8340715e+03
 5.3360200e+00   5.8199681e+03
 5.3407001e+00   5.8107751e+03
 5.3453798e+00   5.8052039e+03
 5.3500600e+00   5.8009924e+03
 5.3547401e+00   5.8095079e+03
 5.3594198e+00   5.8095930e+03
 5.3641000e+00   5.8003416e+03
 5.3687801e+00   5.8071746e+03
 5.3734598e+00   5.8123164e+03
 5.3781400e+00   5.8036181e+03
 5.3828201e+00   5.8022168e+03
 5.3874998e+00   5.8041269e+03
 5.3921800e+00   5.8217522e+03
 5.3968601e+00   5.8320651e+03
 5.4015398e+00   5.8181860e+03
 5.4062200e+00   5.8468780e+03
 5.4109001e+00   5.8543464e+03
 5.4155798e+00   5.8502367e+03
 5.4202600e+00   5.8655355e+03
 5.4249401e+00   5.8768108e+03
 5.4296198e+00   5.8848663e+03
 5.4342999e+00   5.9134524e+03
 5.4389801e+00   5.9046878e+03
 5.4436598e+00   5.9385933e+03
 5.4483399e+00   5.9471148e+03
 5.4530201e+00   5.9864282e+03
 5.4576998e+00   6.0271142e+03
 5.4623799e+00   6.0553719e+03
 5.4670601e+00   6.0758423e+03
 5.4717398e+00   6.1360398e+03
 5.4764199e+00   6.1897411e+03
 5.4811001e+00   6.2711608e+03
 5.4857798e+00   6.3452313e+03
 5.4904599e+00   6.4253601e+03
 5.4951401e+00   6.5460989e+03
 5.4998202e+00   6.6647114e+03
 5.5044999e+00   6.8825577e+03
 5.5091801e+00   7.0717163e+03
 5.5138602e+00   7.3104255e+03
 5.5185399e+00   7.6406962e+03
 5.5232201e+00   7.9889982e+03
 5.5279002e+00   8.4136479e+03
 5.5325799e+00   8.9402485e+03
 5.5372601e+00   9.4425414e+03
 5.5419402e+00   1.0056350e+04
 5.5466199e+00   1.0575828e+04
 5.5513000e+00   1.1105220e+04
 5.5559802e+00   1.1521908e+04
 5.5606599e+00   1.1819894e+04
 5.5653400e+00   1.1941787e+04
 5.5700202e+00   1.1959292e+04
 5.5746999e+00   1.1843286e+04
 5.5793800e+00   1.1613810e+04
 5.5840602e+00   1.1332582e+04
 5.5887399e+00   1.0946811e+04
 5.5934200e+00   1.0576724e+04
 5.5981002e+00   1.0184708e+04
 5.6027799e+00   9.7916237e+03
 5.6074600e+00   9.4538698e+03
 5.6121402e+00   9.1011751e+03
 5.6168199e+00   8.7780712e+03
 5.6215000e+00   8.5071496e+03
 5.6261802e+00   8.2368967e+03
 5.6308599e+00   7.9778301e+03
 5.6355400e+00   7.7736888e+03
 5.6402202e+00   7.5857106e+03
 5.6448998e+00   7.3930032e+03
 5.6495800e+00   7.2354553e+03
 5.6542602e+00   7.0765459e+03
 5.6589398e+00   6.9438558e+03
 5.6636200e+00   6.8088189e+03
 5.6683002e+00   6.7000094e+03
 5.6729798e+00   6.6133842e+03
 5.6776600e+00   6.5153240e+03
 5.6823401e+00   6.4130628e+03
 5.6870198e+00   6.3624522e+03
 5.6917000e+00   6.2965151e+03
 5.6963801e+00   6.2412025e+03
 5.7010598e+00   6.2072589e+03
 5.7057400e+00   6.1559985e+03
 5.7104201e+00   6.1283311e+03
 5.7150998e+00   6.0939981e+03
 5.7197800e+00   6.0882927e+03
 5.7244601e+00   6.0802486e+03
 5.7291398e+00   6.0665436e+03
 5.7338200e+00   6.0432083e+03
 5.7385001e+00   6.0485999e+03
 5.7431798e+00   6.0539400e+03
 5.7478600e+00   6.0628747e+03
 5.7525401e+00   6.0534108e+03
 5.7572198e+00   6.0664379e+03
 5.7618999e+00   6.0680818e+03
 5.7665801e+00   6.0706457e+03
 5.7712598e+00   6.0493147e+03
 5.7759399e+00   6.0479546e+03
 5.7806201e+00   6.0072982e+03
 5.7852998e+00   6.0217361e+03
 5.7899799e+00   6.0193482e+03
 5.7946601e+00   6.0058977e+03
 5.7993398e+00   6.0089042e+03
 5.8040199e+00   5.9978128e+03
 5.8087001e+00   5.9877958e+03
 5.8133798e+00   5.9987489e+03
 5.8180599e+00   6.0008590e+03
 5.8227401e+00   6.0113095e+03
 5.8274202e+00   6.0175552e+03
 5.8320999e+00   6.0079913e+03
 5.8367801e+00   6.0299799e+03
 5.8414602e+00   6.0485000e+03
 5.8461399e+00   6.0709497e+03
 5.8508201e+00   6.1038817e+03
 5.8555002e+00   6.1313934e+03
 5.8601799e+00   6.1743563e+03
 5.8648601e+00   6.2064726e+03
 5.8695402e+00   6.2591258e+03
 5.8742199e+00   6.3102275e+03
 5.8789001e+00   6.3719714e+03
 5.8835802e+00   6.4637870e+03
 5.8882599e+00   6.5590764e+03
 5.8929400e+00   6.6324993e+03
 5.8976202e+00   6.7634061e+03
 5.9022999e+00   6.8549096e+03
 5.9069800e+00   7.0522674e+03
 5.9116602e+00   7.3323562e+03
 5.9163399e+00   7.6291364e+03
 5.9210200e+00   7.8872807e+03
 5.9257002e+00   8.0202261e+03
 5.9303799e+00   8.3538875e+03
 5.9350600e+00   8.9411646e+03
 5.9397402e+00   9.3181074e+03
 5.9444199e+00   9.4913689e+03
 5.9491000e+00   9.4522168e+03
 5.9537802e+00   9.3726431e+03
 5.9584599e+00   8.9924763e+03
 5.9631400e+00   8.9683367e+03
 5.9678202e+00   8.9222140e+03
 5.9724998e+00   8.8624191e+03
 5.9771800e+00   8.7203699e+03
 5.9818602e+00   8.5966770e+03
 5.9865398e+00   8.5083903e+03
 5.9912200e+00   8.4050773e+03
 5.9959002e+00   8.2517564e+03
 6.0005798e+00   8.1233738e+03
 6.0052600e+00   7.9295068e+03
 6.0099401e+00   7.7822312e+03
 6.0146198e+00   7.5987210e+03
 6.0193000e+00   7.4026640e+03
 6.0239801e+00   7.2899835e+03
 6.0286598e+00   7.0994567e+03
 6.0333400e+00   6.9573760e+03
 6.0380201e+00   6.8448455e+03
 6.0426998e+00   6.7037564e+03
 6.0473800e+00   6.6106826e+03
 6.0520601e+00   6.5165142e+03
 6.0567398e+00   6.3980866e+03
 6.0614200e+00   6.3712329e+03
 6.0661001e+00   6.2672950e+03
 6.0707798e+00   6.2111733e+03
 6.0754600e+00   6.1791028e+03
 6.0801401e+00   6.1298020e+03
 6.0848198e+00   6.0727975e+03
 6.0895000e+00   6.0627750e+03
 6.0941801e+00   6.0026631e+03
 6.0988598e+00   6.0048452e+03
 6.1035399e+00   5.9810509e+03
 6.1082201e+00   5.9470698e+03
 6.1128998e+00   5.9401889e+03
 6.1175799e+00   5.9327346e+03
 6.1222601e+00   5.9108790e+03
 6.1269398e+00   5.9130532e+03
 6.1316199e+00   5.8787495e+03
 6.1363001e+00   5.8937057e+03
 6.1409798e+00   5.8930173e+03
 6.1456599e+00   5.8607736e+03
 6.1503401e+00   5.8782158e+03
 6.1550202e+00   5.8591151e+03
 6.1596999e+00   5.8545643e+03
 6.1643801e+00   5.8667091e+03
 6.1690602e+00   5.8506276e+03
 6.1737399e+00   5.8483907e+03
 6.1784201e+00   5.8692023e+03
 6.1831002e+00   5.8362782e+03
 6.1877799e+00   5.8551440e+03
 6.1924601e+00   5.8406490e+03
 6.1971402e+00   5.8402599e+03
 6.2018199e+00   5.8635581e+03
 6.2065001e+00   5.8679833e+03
 6.2111802e+00   5.8544414e+03
 6.2158599e+00   5.8683422e+03
 6.2205400e+00   5.8572257e+03
 6.2252202e+00   5.8584130e+03
 6.2298999e+00   5.8678919e+03
 6.2345800e+00   5.8522672e+03
 6.2392602e+00   5.8727654e+03
 6.2439399e+00   5.8829093e+03
 6.2486200e+00   5.8748766e+03
 6.2533002e+00   5.8700038e+03
 6.2579799e+00   5.8680244e+03
 6.2626600e+00   5.8792946e+03
 6.2673402e+00   5.8842997e+03
 6.2720199e+00   5.8480269e+03
 6.2767000e+00   5.8957834e+03
 6.2813802e+00   5.8745357e+03
 6.2860599e+00   5.8868130e+03
 6.2907400e+00   5.8826303e+03
 6.2954202e+00   5.9005760e+03
 6.3000998e+00   5.8830389e+03
 6.3047800e+00   5.9167159e+03
 6.3094602e+00   5.8890591e+03
 6.3141398e+00   5.9198346e+03
 6.3188200e+00   5.9146548e+03
 6.3235002e+00   5.9022047e+03
 6.3281798e+00   5.9488802e+03
 6.3328600e+00   5.9266443e+03
 6.3375401e+00   5.9505444e+03
 6.3422198e+00   5.9422831e+03
 6.3469000e+00   5.9201835e+03
 6.3515801e+00   5.9409388e+03
 6.3562598e+00   5.9604797e+03
 6.3609400e+00   5.9238404e+03
 6.3656201e+00   5.9549448e+03
 6.3702998e+00   5.9304364e+03
 6.3749800e+00   5.9427488e+03
 6.3796601e+00   5.9365333e+03
 6.3843398e+00   5.9593626e+03
 6.3890200e+00   5.9432603e+03
 6.3937001e+00   5.9629888e+03
 6.3983798e+00   5.9388087e+03
 6.4030600e+00   5.9573165e+03
 6.4077401e+00   5.9687115e+03
 6.4124198e+00   5.9627124e+03
 6.4171000e+00   5.9942121e+03
 6.4217801e+00   5.9721732e+03
 6.4264598e+00   5.9817670e+03
 6.4311399e+00   5.9882944e+03
 6.4358201e+00   5.9884192e+03
 6.4404998e+00   6.0119552e+03
 6.4451799e+00   6.0116130e+03
 6.4498601e+00   5.9893752e+03
 6.4545398e+00   5.9947531e+03
 6.4592199e+00   6.0019989e+03
 6.4639001e+00   5.9959165e+03
 6.4685798e+00   6.0173214e+03
 6.4732599e+00   5.9964003e+03
 6.4779401e+00   6.0126253e+03
 6.4826198e+00   6.0194520e+03
 6.4872999e+00   6.0201128e+03
 6.4919801e+00   6.0160935e+03
 6.4966602e+00   6.0527183e+03
 6.5013399e+00   6.0075582e+03
 6.5060201e+00   6.0522167e+03
 6.5107002e+00   6.0270242e+03
 6.5153799e+00   6.0518081e+03
 6.5200601e+00   6.0683294e+03
 6.5247402e+00   6.0737338e+03
 6.5294199e+00   6.0598042e+03
 6.5341001e+00   6.0820417e+03
 6.5387802e+00   6.0774203e+03
 6.5434599e+00   6.0905812e+03
 6.5481400e+00   6.1122015e+03
 6.5528202e+00   6.0977589e+03
 6.5574999e+00   6.1318365e+03
 6.5621800e+00   6.1015750e+03
 6.5668602e+00   6.1293310e+03
 6.5715399e+00   6.1427696e+03
 6.5762200e+00   6.1238520e+03
 6.5809002e+00   6.1504777e+03
 6.5855799e+00   6.1571354e+03
 6.5902600e+00   6.1417147e+03
 6.5949402e+00   6.1872590e+03
 6.5996199e+00   6.1501943e+03
 6.6043000e+00   6.1956419e+03
 6.6089802e+00   6.2103866e+03
 6.6136599e+00   6.2204293e+03
 6.6183400e+00   6.2448264e+03
 6.6230202e+00   6.2385981e+03
 6.6276999e+00   6.2331148e+03
 6.6323800e+00   6.2735962e+03
 6.6370602e+00   6.2689646e+03
 6.6417398e+00   6.2689332e+03
 6.6464200e+00   6.3413845e+03
 6.6511002e+00   6.2949896e+03
 6.6557798e+00   6.3506612e+03
 6.6604600e+00   6.3380489e+03
 6.6651402e+00   6.3632497e+03
 6.6698198e+00   6.3401422e+03
 6.6745000e+00   6.3877997e+03
 6.6791801e+00   6.3734738e+03
 6.6838598e+00   6.4158515e+03
 6.6885400e+00   6.3426060e+03
 6.6932201e+00   6.4173242e+03
 6.6978998e+00   6.3515226e+03
 6.7025800e+00   6.4253200e+03
 6.7072601e+00   6.4273261e+03
 6.7119398e+00   6.4326438e+03
 6.7166200e+00   6.4399712e+03
 6.7213001e+00   6.4609629e+03
 6.7259798e+00   6.4832770e+03
 6.7306600e+00   6.4664617e+03
 6.7353401e+00   6.5453220e+03
 6.7400198e+00   6.5058092e+03
 6.7447000e+00   6.5535875e+03
 6.7493801e+00   6.5123088e+03
 6.7540598e+00   6.5790469e+03
 6.7587399e+00   6.5849112e+03
 6.7634201e+00   6.6088162e+03
 6.7680998e+00   6.6017218e+03
 6.7727799e+00   6.6981011e+03
 6.7774601e+00   6.6128809e+03
 6.7821398e+00   6.7102090e+03
 6.7868199e+00   6.6613671e+03
 6.7915001e+00   6.7091742e+03
 6.7961798e+00   6.6816253e+03
 6.8008599e+00   6.6969047e+03
 6.8055401e+00   6.6918512e+03
 6.8102198e+00   6.7278880e+03
 6.8148999e+00   6.7232478e+03
 6.8195801e+00   6.7685628e+03
 6.8242602e+00   6.7876799e+03
 6.8289399e+00   6.7677860e+03
 6.8336201e+00   6.8184408e+03
 6.8383002e+00   6.7910890e+03
 6.8429799e+00   6.8444544e+03
 6.8476601e+00   6.8968655e+03
 6.8523402e+00   6.8916676e+03
 6.8570199e+00   6.9134089e+03
 6.8617001e+00   6.9770593e+03
 6.8663802e+00   7.0107703e+03
 6.8710599e+00   7.0706532e+03
 6.8757401e+00   7.1306774e+03
 6.8804202e+00   7.1840829e+03
 6.8850999e+00   7.2173427e+03
 6.8897800e+00   7.3221908e+03
 6.8944602e+00   7.3633261e+03
 6.8991399e+00   7.4727128e+03
 6.9038200e+00   7.5377205e+03
 6.9085002e+00   7.6428823e+03
 6.9131799e+00   7.6577329e+03
 6.9178600e+00   7.8424802e+03
 6.9225402e+00   7.8833417e+03
 6.9272199e+00   7.9981036e+03
 6.9319000e+00   8.0148743e+03
 6.9365802e+00   8.1234117e+03
 6.9412599e+00   8.0586348e+03
 6.9459400e+00   8.1653757e+03
 6.9506202e+00   8.1660851e+03
 6.9552999e+00   8.1843415e+03
 6.9599800e+00   8.1751465e+03
 6.9646602e+00   8.1860769e+03
 6.9693398e+00   8.1091200e+03
 6.9740200e+00   8.1529578e+03
 6.9787002e+00   8.1028960e+03
 6.9833798e+00   8.0942613e+03
 6.9880600e+00   8.0825568e+03
 6.9927402e+00   8.0574701e+03
 6.9974198e+00   8.0240057e+03
 7.0021000e+00   7.9657650e+03
 7.0067801e+00   7.9904863e+03
 7.0114598e+00   7.9554623e+03
 7.0161400e+00   7.9207721e+03
 7.0208201e+00   7.8565407e+03
 7.0254998e+00   7.8581630e+03
 7.0301800e+00   7.7612275e+03
 7.0348601e+00   7.7776012e+03
 7.0395398e+00   7.7034415e+03
 7.0442200e+00   7.7049146e+03
 7.0489001e+00   7.6107119e+03
 7.0535798e+00   7.6064191e+03
 7.0582600e+00   7.5457040e+03
 7.0629401e+00   7.5723684e+03
 7.0676198e+00   7.4372262e+03
 7.0723000e+00   7.4528163e+03
 7.0769801e+00   7.3511458e+03
 7.0816598e+00   7.2532864e+03
 7.0863400e+00   7.2057107e+03
 7.0910201e+00   7.0763652e+03
 7.0956998e+00   7.0379901e+03
 7.1003799e+00   6.9936495e+03
 7.1050601e+00   6.9605813e+03
 7.1097398e+00   6.9053748e+03
 7.1144199e+00   6.8811804e+03
 7.1191001e+00   6.8271906e+03
 7.1237798e+00   6.8532532e+03
 7.1284599e+00   6.7992879e+03
 7.1331401e+00   6.7883228e+03
 7.1378198e+00   6.7640605e+03
 7.1424999e+00   6.7707494e+03
 7.1471801e+00   6.7373663e+03
 7.1518602e+00   6.7420958e+03
 7.1565399e+00   6.7042846e+03
 7.1612201e+00   6.7245091e+03
 7.1659002e+00   6.6763993e+03
 7.1705799e+00   6.6902878e+03
 7.1752601e+00   6.7020086e+03
 7.1799402e+00   6.6689172e+03
 7.1846199e+00   6.6769391e+03
 7.1893001e+00   6.6572376e+03
 7.1939802e+00   6.6592373e+03
 7.1986599e+00   6.6337799e+03
 7.2033401e+00   6.6347601e+03
 7.2080202e+00   6.6273211e+03
 7.2126999e+00   6.6521736e+03
 7.2173800e+00   6.6049138e+03
 7.2220602e+00   6.6156527e+03
 7.2267399e+00   6.6152258e+03
 7.2314200e+00   6.6200955e+03
 7.2361002e+00   6.6165467e+03
 7.2407799e+00   6.6200007e+03
 7.2454600e+00   6.6247634e+03
 7.2501402e+00   6.6490727e+03
 7.2548199e+00   6.6569527e+03
 7.2595000e+00   6.6557869e+03
 7.2641802e+00   6.6794272e+03
 7.2688599e+00   6.6612008e+03
 7.2735400e+00   6.6655685e+03
 7.2782202e+00   6.6568625e+03
 7.2828999e+00   6.6657500e+03
 7.2875800e+00   6.6595128e+03
 7.2922602e+00   6.6554422e+03
 7.2969398e+00   6.6390300e+03
 7.3016200e+00   6.6589943e+03
 7.3063002e+00   6.6519445e+03
 7.3109798e+00   6.6616088e+03
 7.3156600e+00   6.6699839e+03
 7.3203402e+00   6.7019684e+03
 7.3250198e+00   6.6963959e+03
 7.3297000e+00   6.7202528e+03
 7.3343801e+00   6.7443433e+03
 7.3390598e+00   6.7619583e+03
 7.3437400e+00   6.7926353e+03
 7.3484201e+00   6.7832688e+03
 7.3530998e+00   6.8132573e+03
 7.3577800e+00   6.8197074e+03
 7.3624601e+00   6.8509543e+03
 7.3671398e+00   6.8376525e+03
 7.3718200e+00   6.8910206e+03
 7.3765001e+00   6.8827415e+03
 7.3811798e+00   6.8962926e+03
 7.3858600e+00   6.9047345e+03
 7.3905401e+00   6.9275637e+03
 7.3952198e+00   6.9336360e+03
 7.3999000e+00   6.9596123e+03
 7.4045801e+00   6.9691423e+03
 7.4092598e+00   6.9707714e+03
 7.4139400e+00   7.0081162e+03
 7.4186201e+00   6.9986625e+03
 7.4232998e+00   7.0370227e+03
 7.4279799e+00   7.0593073e+03
 7.4326601e+00   7.0830987e+03
 7.4373398e+00   7.1133691e+03
 7.4420199e+00   7.1440358e+03
 7.4467001e+00   7.1656094e+03
 7.4513798e+00   7.1955473e+03
 7.4560599e+00   7.2106148e+03
 7.4607401e+00   7.2202276e+03
 7.4654198e+00   7.2631241e+03
 7.4700999e+00   7.2606345e+03
 7.4747801e+00   7.2961573e+03
 7.4794598e+00   7.2769121e+03
 7.4841399e+00   7.2854745e+03
 7.4888201e+00   7.2941951e+03
 7.4935002e+00   7.3037328e+03
 7.4981799e+00   7.2932768e+03
 7.5028601e+00   7.3151682e+03
 7.5075402e+00   7.3101900e+03
 7.5122199e+00   7.3241421e+03
 7.5169001e+00   7.3139255e+03
 7.5215802e+00   7.3163674e+03
 7.5262599e+00   7.3320849e+03
 7.5309401e+00   7.3264661e+03
 7.5356202e+00   7.3353696e+03
 7.5402999e+00   7.3380535e+03
 7.5449800e+00   7.3524474e+03
 7.5496602e+00   7.3316211e+03
 7.5543399e+00   7.3473934e+03
 7.5590200e+00   7.3234498e+03
 7.5637002e+00   7.3482325e+03
 7.5683799e+00   7.3034569e+03
 7.5730600e+00   7.3038711e+03
 7.5777402e+00   7.2909205e+03
 7.5824199e+00   7.2722570e+03
 7.5871000e+00   7.2335312e+03
 7.5917802e+00   7.2293622e+03
 7.5964599e+00   7.1709080e+03
 7.6011400e+00   7.1509680e+03
 7.6058202e+00   7.0706647e+03
 7.6104999e+00   7.0135357e+03
 7.6151800e+00   6.9693971e+03
 7.6198602e+00   6.8279631e+03
 7.6245399e+00   6.7869651e+03
 7.6292200e+00   6.6890779e+03
 7.6339002e+00   6.6440001e+03
 7.6385798e+00   6.5488386e+03
 7.6432600e+00   6.4937269e+03
 7.6479402e+00   6.4398124e+03
 7.6526198e+00   6.4209073e+03
 7.6573000e+00   6.3455847e+03
 7.6619802e+00   6.3224818e+03
 7.6666598e+00   6.2729971e+03
 7.6713400e+00   6.2532038e+03
 7.6760201e+00   6.2137452e+03
 7.6806998e+00   6.2078443e+03
 7.6853800e+00   6.1835903e+03
 7.6900601e+00   6.1697354e+03
 7.6947398e+00   6.1464503e+03
 7.6994200e+00   6.1245437e+03
 7.7041001e+00   6.1235320e+03
 7.7087798e+00   6.1005193e+03
 7.7134600e+00   6.0874689e+03
 7.7181401e+00   6.0547114e+03
 7.7228198e+00   6.0628043e+03
 7.7275000e+00   6.0346377e+03
 7.7321801e+00   6.0390864e+03
 7.7368598e+00   6.0180704e+03
 7.7415400e+00   6.0240426e+03
 7.7462201e+00   6.0076237e+03
 7.7508998e+00   5.9961599e+03
 7.7555799e+00   5.9535088e+03
 7.7602601e+00   5.9849011e+03
 7.7649398e+00   5.9417724e+03
 7.7696199e+00   5.9179914e+03
 7.7743001e+00   5.9277918e+03
 7.7789798e+00   5.8937358e+03
 7.7836599e+00   5.8969798e+03
 7.7883401e+00   5.8593323e+03
 7.7930198e+00   5.8766878e+03
 7.7976999e+00   5.8675147e+03
 7.8023801e+00   5.8545374e+03
 7.8070598e+00   5.8349873e+03
 7.8117399e+00   5.8429041e+03
 7.8164201e+00   5.7888781e+03
 7.8211002e+00   5.8168729e+03
 7.8257799e+00   5.7934044e+03
 7.8304601e+00   5.7571802e+03
 7.8351402e+00   5.8022140e+03
 7.8398199e+00   5.7708809e+03
 7.8445001e+00   5.7443335e+03
 7.8491802e+00   5.7615617e+03
 7.8538599e+00   5.7459217e+03
 7.8585401e+00   5.7496742e+03
 7.8632202e+00   5.7486823e+03
 7.8678999e+00   5.7099180e+03
 7.8725801e+00   5.7367306e+03
 7.8772602e+00   5.7208639e+03
 7.8819399e+00   5.7015108e+03
 7.8866200e+00   5.6852361e+03
 7.8913002e+00   5.6854554e+03
 7.8959799e+00   5.6746237e+03
 7.9006600e+00   5.6731001e+03
 7.9053402e+00   5.6534057e+03
 7.9100199e+00   5.6766933e+03
 7.9147000e+00   5.6385895e+03
 7.9193802e+00   5.6479339e+03
 7.9240599e+00   5.6481837e+03
 7.9287400e+00   5.6394031e+03
 7.9334202e+00   5.6132969e+03
 7.9380999e+00   5.6342169e+03
 7.9427800e+00   5.5993964e+03
 7.9474602e+00   5.6223847e+03
 7.9521399e+00   5.6093697e+03
 7.9568200e+00   5.5907270e+03
 7.9615002e+00   5.6027735e+03
 7.9661798e+00   5.5861208e+03
 7.9708600e+00   5.5829439e+03
 7.9755402e+00   5.5730247e+03
 7.9802198e+00   5.5524197e+03
 7.9849000e+00   5.5715733e+03
 7.9895802e+00   5.5548056e+03
 7.9942598e+00   5.5420113e+03
 7.9989400e+00   5.5728756e+03
 8.0036201e+00   5.5297236e+03
 8.0082998e+00   5.5420560e+03
 8.0129805e+00   5.5469293e+03
 8.0176601e+00   5.5193963e+03
 8.0223398e+00   5.5298001e+03
 8.0270205e+00   5.5309045e+03
 8.0317001e+00   5.5096460e+03
 8.0363798e+00   5.5421160e+03
 8.0410604e+00   5.5117927e+03
 8.0457401e+00   5.5241056e+03
 8.0504198e+00   5.5303017e+03
 8.0551004e+00   5.5149406e+03
 8.0597801e+00   5.5375103e+03
 8.0644598e+00   5.5464573e+03
 8.0691404e+00   5.5648988e+03
 8.0738201e+00   5.5967461e+03
 8.0784998e+00   5.6101626e+03
 8.0831804e+00   5.6257009e+03
 8.0878601e+00   5.6846846e+03
 8.0925398e+00   5.6692718e+03
 8.0972204e+00   5.7605457e+03
 8.1019001e+00   5.7689069e+03
 8.1065798e+00   5.7773419e+03
 8.1112604e+00   5.8313116e+03
 8.1159401e+00   5.8185629e+03
 8.1206198e+00   5.8253707e+03
 8.1253004e+00   5.8619100e+03
 8.1299801e+00   5.8428871e+03
 8.1346598e+00   5.8621947e+03
 8.1393404e+00   5.8591765e+03
 8.1440201e+00   5.8266125e+03
 8.1486998e+00   5.8921599e+03
 8.1533804e+00   5.8558979e+03
 8.1580601e+00   5.8977517e+03
 8.1627398e+00   5.9115178e+03
 8.1674204e+00   5.9446768e+03
 8.1721001e+00   5.9641520e+03
 8.1767797e+00   6.0120949e+03
 8.1814604e+00   6.0281893e+03
 8.1861401e+00   6.1034219e+03
 8.1908197e+00   6.1443067e+03
 8.1955004e+00   6.2254594e+03
 8.2001801e+00   6.3081936e+03
 8.2048597e+00   6.3733526e+03
 8.2095404e+00   6.4674803e+03
 8.2142200e+00   6.5530163e+03
 8.2188997e+00   6.6340250e+03
 8.2235804e+00   6.7494543e+03
 8.2282600e+00   6.8349233e+03
 8.2329397e+00   6.9211317e+03
 8.2376204e+00   7.0177329e+03
 8.2423000e+00   7.0497744e+03
 8.2469797e+00   7.1363582e+03
 8.2516603e+00   7.1713188e+03
 8.2563400e+00   7.2099760e+03
 8.2610197e+00   7.2283671e+03
 8.2657003e+00   7.2391584e+03
 8.2703800e+00   7.2542716e+03
 8.2750597e+00   7.2542312e+03
 8.2797403e+00   7.2533168e+03
 8.2844200e+00   7.2444704e+03
 8.2890997e+00   7.2093777e+03
 8.2937803e+00   7.1409520e+03
 8.2984600e+00   7.0921451e+03
 8.3031397e+00   6.9796678e+03
 8.3078203e+00   6.9022581e+03
 8.3125000e+00   6.7712741e+03
 8.3171797e+00   6.6571277e+03
 8.3218603e+00   6.4998029e+03
 8.3265400e+00   6.3922809e+03
 8.3312197e+00   6.2603107e+03
 8.3359003e+00   6.1702586e+03
 8.3405800e+00   6.0499372e+03
 8.3452597e+00   5.9833008e+03
 8.3499403e+00   5.8792591e+03
 8.3546200e+00   5.8554536e+03
 8.3592997e+00   5.8014318e+03
 8.3639803e+00   5.7935454e+03
 8.3686600e+00   5.8255445e+03
 8.3733397e+00   5.9199810e+03
 8.3780203e+00   6.0617989e+03
 8.3827000e+00   6.2338004e+03
 8.3873796e+00   6.1969252e+03
 8.3920603e+00   6.3431936e+03
 8.3967400e+00   6.5318166e+03
 8.4014196e+00   6.8783825e+03
 8.4061003e+00   7.0257624e+03
 8.4107800e+00   7.0962583e+03
 8.4154596e+00   6.9176079e+03
 8.4201403e+00   6.8554267e+03
 8.4248199e+00   6.3585082e+03
 8.4294996e+00   6.3109169e+03
 8.4341803e+00   6.2376954e+03
 8.4388599e+00   6.1842387e+03
 8.4435396e+00   6.0831429e+03
 8.4482203e+00   5.9428030e+03
 8.4528999e+00   5.9009012e+03
 8.4575796e+00   5.8944684e+03
 8.4622602e+00   5.9032445e+03
 8.4669399e+00   5.9129444e+03
 8.4716196e+00   5.9456820e+03
 8.4763002e+00   5.9725076e+03
 8.4809799e+00   5.9953530e+03
 8.4856596e+00   6.0469820e+03
 8.4903402e+00   6.0879601e+03
 8.4950199e+00   6.1473241e+03
 8.4996996e+00   6.1699333e+03
 8.5043802e+00   6.2315231e+03
 8.5090599e+00   6.2539137e+03
 8.5137396e+00   6.3212812e+03
 8.5184202e+00   6.3480034e+03
 8.5230999e+00   6.4154570e+03
 8.5277796e+00   6.4483776e+03
 8.5324602e+00   6.5163515e+03
 8.5371399e+00   6.5433326e+03
 8.5418196e+00   6.5903462e+03
 8.5465002e+00   6.6358315e+03
 8.5511799e+00   6.6717788e+03
 8.5558596e+00   6.7078010e+03
 8.5605402e+00   6.7044577e+03
 8.5652199e+00   6.7552880e+03
 8.5698996e+00   6.7212968e+03
 8.5745802e+00   6.7517135e+03
 8.5792599e+00   6.7160637e+03
 8.5839396e+00   6.7095296e+03
 8.5886202e+00   6.6634383e+03
 8.5932999e+00   6.6403473e+03
 8.5979795e+00   6.5762004e+03
 8.6026602e+00   6.5275654e+03
 8.6073399e+00   6.4694668e+03
 8.6120195e+00   6.4112510e+03
 8.6167002e+00   6.3478425e+03
 8.6213799e+00   6.2671878e+03
 8.6260595e+00   6.2134230e+03
 8.6307402e+00   6.1386610e+03
 8.6354198e+00   6.0944289e+03
 8.6400995e+00   6.0166467e+03
 8.6447802e+00   5.9887279e+03
 8.6494598e+00   5.9065910e+03
 8.6541405e+00   5.8691273e+03
 8.6588202e+00   5.8120975e+03
 8.6634998e+00   5.7840869e+03
 8.6681805e+00   5.7408400e+03
 8.6728601e+00   5.7113608e+03
 8.6775398e+00   5.6607783e+03
 8.6822205e+00   5.6455081e+03
 8.6869001e+00   5.6165028e+03
 8.6915798e+00   5.6097693e+03
 8.6962605e+00   5.5853619e+03
 8.7009401e+00   5.5527169e+03
 8.7056198e+00   5.5483980e+03
 8.7103004e+00   5.5321011e+03
 8.7149801e+00   5.5127750e+03
 8.7196598e+00   5.4952927e+03
 8.7243404e+00   5.4899797e+03
 8.7290201e+00   5.4649839e+03
 8.7336998e+00   5.4625623e+03
 8.7383804e+00   5.4450650e+03
 8.7430601e+00   5.4530328e+03
 8.7477398e+00   5.4281962e+03
 8.7524204e+00   5.4301992e+03
 8.7571001e+00   5.4125205e+03
 8.7617798e+00   5.3853473e+03
 8.7664604e+00   5.3867658e+03
 8.7711401e+00   5.3692361e+03
 8.7758198e+00   5.3535707e+03
 8.7805004e+00   5.3400782e+03
 8.7851801e+00   5.3423530e+03
 8.7898598e+00   5.3260587e+03
 8.7945404e+00   5.3220330e+03
 8.7992201e+00   5.2806582e+03
 8.8038998e+00   5.2852057e+03
 8.8085804e+00   5.2578649e+03
 8.8132601e+00   5.2765455e+03
 8.8179398e+00   5.2444512e+03
 8.8226204e+00   5.2355190e+03
 8.8273001e+00   5.2152754e+03
 8.8319798e+00   5.2259623e+03
 8.8366604e+00   5.1795411e+03
 8.8413401e+00   5.1843534e+03
 8.8460197e+00   5.1676972e+03
 8.8507004e+00   5.1453665e+03
 8.8553801e+00   5.1213188e+03
 8.8600597e+00   5.1075127e+03
 8.8647404e+00   5.0902624e+03
 8.8694201e+00   5.0623958e+03
 8.8740997e+00   5.0457666e+03
 8.8787804e+00   5.0391540e+03
 8.8834600e+00   5.0281545e+03
 8.8881397e+00   5.0129809e+03
 8.8928204e+00   5.0318736e+03
 8.8975000e+00   4.9969228e+03
 8.9021797e+00   4.9961783e+03
 8.9068604e+00   4.9780315e+03
 8.9115400e+00   4.9833908e+03
 8.9162197e+00   4.9864431e+03
 8.9209003e+00   4.9726228e+03
 8.9255800e+00   4.9708332e+03
 8.9302597e+00   4.9695111e+03
 8.9349403e+00   4.9637807e+03
 8.9396200e+00   4.9535272e+03
 8.9442997e+00   4.9592921e+03
 8.9489803e+00   4.9573413e+03
 8.9536600e+00   4.9645696e+03
 8.9583397e+00   4.9495883e+03
 8.9630203e+00   4.9561431e+03
 8.9677000e+00   4.9612278e+03
 8.9723797e+00   4.9538419e+03
 8.9770603e+00   4.9451635e+03
 8.9817400e+00   4.9686762e+03
 8.9864197e+00   4.9683717e+03
 8.9911003e+00   4.9687127e+03
 8.9957800e+00   4.9557002e+03
 9.0004597e+00   4.9547281e+03
 9.0051403e+00   4.9504340e+03
 9.0098200e+00   4.9425079e+03
 9.0144997e+00   4.9486430e+03
 9.0191803e+00   4.9412651e+03
 9.0238600e+00   4.9213620e+03
 9.0285397e+00   4.9331758e+03
 9.0332203e+00   4.9335709e+03
 9.0379000e+00   4.9229853e+03
 9.0425797e+00   4.9256950e+03
 9.0472603e+00   4.9112453e+03
 9.0519400e+00   4.9187711e+03
 9.0566196e+00   4.8966898e+03
 9.0613003e+00   4.9109253e+03
 9.0659800e+00   4.9066255e+03
 9.0706596e+00   4.9115661e+03
 9.0753403e+00   4.9017111e+03
 9.0800200e+00   4.9150268e+03
 9.0846996e+00   4.8949984e+03
 9.0893803e+00   4.9162994e+03
 9.0940599e+00   4.9146368e+03
 9.0987396e+00   4.9066700e+03
 9.1034203e+00   4.9236777e+03
 9.1080999e+00   4.9201724e+03
 9.1127796e+00   4.9245906e+03
 9.1174603e+00   4.9321000e+03
 9.1221399e+00   4.9374855e+03
 9.1268196e+00   4.9404279e+03
 9.1315002e+00   4.9628741e+03
 9.1361799e+00   4.9506526e+03
 9.1408596e+00   4.9697063e+03
 9.1455402e+00   4.9611080e+03
 9.1502199e+00   4.9801793e+03
 9.1548996e+00   4.9866686e+03
 9.1595802e+00   4.9932409e+03
 9.1642599e+00   5.0093704e+03
 9.1689396e+00   5.0183620e+03
 9.1736202e+00   5.0240142e+03
 9.1782999e+00   5.0511903e+03
 9.1829796e+00   5.0666994e+03
 9.1876602e+00   5.0657502e+03
 9.1923399e+00   5.0972337e+03
 9.1970196e+00   5.0944556e+03
 9.2017002e+00   5.1301681e+03
 9.2063799e+00   5.1350186e+03
 9.2110596e+00   5.1600205e+03
 9.2157402e+00   5.1788811e+03
 9.2204199e+00   5.1990619e+03
 9.2250996e+00   5.2121896e+03
 9.2297802e+00   5.2479736e+03
 9.2344599e+00   5.2629367e+03
 9.2391396e+00   5.2854409e+03
 9.2438202e+00   5.3163504e+03
 9.2484999e+00   5.3410558e+03
 9.2531796e+00   5.3717171e+03
 9.2578602e+00   5.4064751e+03
 9.2625399e+00   5.4284730e+03
 9.2672195e+00   5.4708026e+03
 9.2719002e+00   5.4859751e+03
 9.2765799e+00   5.5198452e+03
 9.2812595e+00   5.5546726e+03
 9.2859402e+00   5.5635923e+03
 9.2906199e+00   5.5968793e+03
 9.2952995e+00   5.6052752e+03
 9.2999802e+00   5.6314937e+03
 9.3046598e+00   5.6509508e+03
 9.3093395e+00   5.6572907e+03
 9.3140202e+00   5.6774240e+03
 9.3186998e+00   5.6860648e+03
 9.3233805e+00   5.6917655e+03
 9.3280602e+00   5.7071400e+03
 9.3327398e+00   5.7002287e+03
 9.3374205e+00   5.7133319e+03
 9.3421001e+00   5.7064620e+03
 9.3467798e+00   5.6974996e+03
 9.3514605e+00   5.6847208e+03
 9.3561401e+00   5.6593163e+03
 9.3608198e+00   5.6469525e+03
 9.3655005e+00   5.6263394e+03
 9.3701801e+00   5.6044731e+03
 9.3748598e+00   5.5630083e+03
 9.3795404e+00   5.5479020e+03
 9.3842201e+00   5.5106986e+03
 9.3888998e+00   5.4715441e+03
 9.3935804e+00   5.4443748e+03
 9.3982601e+00   5.4168045e+03
 9.4029398e+00   5.3836855e+03
 9.4076204e+00   5.3530027e+03
 9.4123001e+00   5.3248440e+03
 9.4169798e+00   5.3053529e+03
 9.4216604e+00   5.2875737e+03
 9.4263401e+00   5.2560405e+03
 9.4310198e+00   5.2494263e+03
 9.4357004e+00   5.2210260e+03
 9.4403801e+00   5.2201086e+03
 9.4450598e+00   5.1960246e+03
 9.4497404e+00   5.1948851e+03
 9.4544201e+00   5.1814411e+03
 9.4590998e+00   5.1784897e+03
 9.4637804e+00   5.1845416e+03
 9.4684601e+00   5.1847467e+03
 9.4731398e+00   5.1769229e+03
 9.4778204e+00   5.1875783e+03
 9.4825001e+00   5.1887236e+03
 9.4871798e+00   5.1988820e+03
 9.4918604e+00   5.1971383e+03
 9.4965401e+00   5.1976494e+03
 9.5012197e+00   5.2181322e+03
 9.5059004e+00   5.2172076e+03
 9.5105801e+00   5.2214663e+03
 9.5152597e+00   5.2103581e+03
 9.5199404e+00   5.2093392e+03
 9.5246201e+00   5.2127528e+03
 9.5292997e+00   5.2238582e+03
 9.5339804e+00   5.2070945e+03
 9.5386600e+00   5.2261486e+03
 9.5433397e+00   5.2149134e+03
 9.5480204e+00   5.2263482e+03
 9.5527000e+00   5.2349281e+03
 9.5573797e+00   5.2353222e+03
 9.5620604e+00   5.2497856e+03
 9.5667400e+00   5.2518581e+03
 9.5714197e+00   5.2600961e+03
 9.5761003e+00   5.2719474e+03
 9.5807800e+00   5.2833827e+03
 9.5854597e+00   5.2847025e+03
 9.5901403e+00   5.3099182e+03
 9.5948200e+00   5.2975598e+03
 9.5994997e+00   5.3214812e+03
 9.6041803e+00   5.3242089e+03
 9.6088600e+00   5.3307198e+03
 9.6135397e+00   5.3396503e+03
 9.6182203e+00   5.3424442e+03
 9.6229000e+00   5.3292998e+03
 9.6275797e+00   5.3366073e+03
 9.6322603e+00   5.3277556e+03
 9.6369400e+00   5.3345232e+03
 9.6416197e+00   5.3197137e+03
 9.6463003e+00   5.3175785e+03
 9.6509800e+00   5.3149525e+03
 9.6556597e+00   5.3150419e+03
 9.6603403e+00   5.3135714e+03
 9.6650200e+00   5.3264501e+03
 9.6696997e+00   5.3171000e+03
 9.6743803e+00   5.3205092e+03
 9.6790600e+00   5.3218020e+03
 9.6837397e+00   5.3148812e+03
 9.6884203e+00   5.3242040e+03
 9.6931000e+00   5.3002289e+03
 9.6977797e+00   5.2917778e+03
 9.7024603e+00   5.2838941e+03
 9.7071400e+00   5.2716487e+03
 9.7118196e+00   5.2326917e+03
 9.7165003e+00   5.2192668e+03
 9.7211800e+00   5.1913230e+03
 9.7258596e+00   5.1851504e+03
 9.7305403e+00   5.1470632e+03
 9.7352200e+00   5.1373113e+03
 9.7398996e+00   5.1194582e+03
 9.7445803e+00   5.1035057e+03
 9.7492599e+00   5.0887155e+03
 9.7539396e+00   5.0873922e+03
 9.7586203e+00   5.0884770e+03
 9.7632999e+00   5.0740576e+03
 9.7679796e+00   5.0834728e+03
 9.7726603e+00   5.0808932e+03
 9.7773399e+00   5.1079400e+03
 9.7820196e+00   5.1087374e+03
 9.7867002e+00   5.1241773e+03
 9.7913799e+00   5.1506322e+03
 9.7960596e+00   5.1706843e+03
 9.8007402e+00   5.1985397e+03
 9.8054199e+00   5.2512061e+03
 9.8100996e+00   5.3088326e+03
 9.8147802e+00   5.3985274e+03
 9.8194599e+00   5.5222726e+03
 9.8241396e+00   5.6591771e+03
 9.8288202e+00   5.7498634e+03
 9.8334999e+00   6.3387967e+03
 9.8381796e+00   6.8336122e+03
 9.8428602e+00   7.4995983e+03
 9.8475399e+00   8.4498792e+03
 9.8522196e+00   8.9476969e+03
 9.8569002e+00   1.0019247e+04
 9.8615799e+00   1.0931620e+04
 9.8662596e+00   1.1166113e+04
 9.8709402e+00   1.0388298e+04
 9.8756199e+00   9.5594943e+03
 9.8802996e+00   8.4391439e+03
 9.8849802e+00   7.1210002e+03
 9.8896599e+00   6.8511546e+03
 9.8943396e+00   6.5354906e+03
 9.8990202e+00   6.1575754e+03
 9.9036999e+00   5.8854828e+03
 9.9083796e+00   5.6990967e+03
 9.9130602e+00   5.5924371e+03
 9.9177399e+00   5.5333869e+03
 9.9224195e+00   5.4933971e+03
 9.9271002e+00   5.4660098e+03
 9.9317799e+00   5.4411593e+03
 9.9364595e+00   5.4337157e+03
 9.9411402e+00   5.4295178e+03
 9.9458199e+00   5.4069914e+03
 9.9504995e+00   5.4051347e+03
 9.9551802e+00   5.4050714e+03
 9.9598598e+00   5.3914541e+03
 9.9645395e+00   5.3970613e+03
 9.9692202e+00   5.3942353e+03
 9.9738998e+00   5.3979396e+03
 9.9785805e+00   5.3803413e+03
 9.9832602e+00   5.3900176e+03
 9.9879398e+00   5.4002217e+03
 9.9926205e+00   5.3862525e+03
 9.9973001e+00   5.3929209e+03
 1.0001980e+01   5.3857509e+03
 1.0006660e+01   5.3614005e+03
 1.0011340e+01   5.3560430e+03
 1.0016020e+01   5.3552704e+03
 1.0020700e+01   5.3412420e+03
 1.0025380e+01   5.3208141e+03
 1.0030060e+01   5.3007493e+03
 1.0034740e+01   5.2908960e+03
 1.0039420e+01   5.2672232e+03
 1.0044100e+01   5.2670462e+03
 1.0048780e+01   5.2577791e+03
 1.0053460e+01   5.2333624e+03
 1.0058140e+01   5.2379796e+03
 1.0062820e+01   5.2191965e+03
 1.0067500e+01   5.2145492e+03
 1.0072180e+01   5.2019650e+03
 1.0076860e+01   5.1945167e+03
 1.0081540e+01   5.1944268e+03
 1.0086220e+01   5.2048374e+03
 1.0090900e+01   5.1752559e+03
 1.0095580e+01   5.1873838e+03
 1.0100260e+01   5.1963938e+03
 1.0104940e+01   5.1878626e+03
 1.0109620e+01   5.1872927e+03
 1.0114300e+01   5.1788713e+03
 1.0118980e+01   5.1892625e+03
 1.0123660e+01   5.1931673e+03
 1.0128340e+01   5.2049774e+03
 1.0133020e+01   5.1895262e+03
 1.0137700e+01   5.2080185e+03
 1.0142380e+01   5.2145008e+03
 1.0147060e+01   5.2294877e+03
 1.0151740e+01   5.2273954e+03
 1.0156420e+01   5.2454492e+03
 1.0161100e+01   5.2506069e+03
 1.0165780e+01   5.2658608e+03
 1.0170460e+01   5.2876848e+03
 1.0175140e+01   5.2983854e+03
 1.0179820e+01   5.3024459e+03
 1.0184500e+01   5.3188242e+03
 1.0189180e+01   5.3308764e+03
 1.0193860e+01   5.3633717e+03
 1.0198540e+01   5.3756535e+03
 1.0203220e+01   5.3788191e+03
 1.0207900e+01   5.4101513e+03
 1.0212580e+01   5.4207990e+03
 1.0217260e+01   5.4424394e+03
 1.0221940e+01   5.4450056e+03
 1.0226620e+01   5.4611744e+03
 1.0231300e+01   5.4712104e+03
 1.0235980e+01   5.4930608e+03
 1.0240660e+01   5.4993739e+03
 1.0245340e+01   5.5038346e+03
 1.0250020e+01   5.5015276e+03
 1.0254700e+01   5.5352089e+03
 1.0259380e+01   5.5582884e+03
 1.0264060e+01   5.6273629e+03
 1.0268740e+01   5.7301503e+03
 1.0273420e+01   5.7691375e+03
 1.0278100e+01   5.6654749e+03
 1.0282780e+01   5.6217821e+03
 1.0287460e+01   5.7234171e+03
 1.0292140e+01   5.8610752e+03
 1.0296820e+01   5.9074982e+03
 1.0301500e+01   5.9541875e+03
 1.0306180e+01   5.9701230e+03
 1.0310860e+01   5.8692327e+03
 1.0315540e+01   5.8165032e+03
 1.0320220e+01   5.7080853e+03
 1.0324900e+01   5.7911979e+03
 1.0329580e+01   5.8669048e+03
 1.0334260e+01   5.6282716e+03
 1.0338940e+01   5.4380568e+03
 1.0343620e+01   5.3466561e+03
 1.0348300e+01   5.2869427e+03
 1.0352980e+01   5.2360000e+03
 1.0357660e+01   5.2128720e+03
 1.0362340e+01   5.1866565e+03
 1.0367020e+01   5.1666028e+03
 1.0371700e+01   5.1594860e+03
 1.0376380e+01   5.1543075e+03
 1.0381060e+01   5.1617890e+03
 1.0385740e+01   5.1659728e+03
 1.0390420e+01   5.1530892e+03
 1.0395100e+01   5.1546476e+03
 1.0399780e+01   5.1646856e+03
 1.0404460e+01   5.1597401e+03
 1.0409140e+01   5.1690286e+03
 1.0413820e+01   5.1755678e+03
 1.0418500e+01   5.1752113e+03
 1.0423180e+01   5.1812307e+03
 1.0427860e+01   5.1868405e+03
 1.0432540e+01   5.1835587e+03
 1.0437220e+01   5.2039128e+03
 1.0441900e+01   5.2065003e+03
 1.0446580e+01   5.2227370e+03
 1.0451260e+01   5.2296176e+03
 1.0455940e+01   5.2363416e+03
 1.0460620e+01   5.2469946e+03
 1.0465300e+01   5.2620076e+03
 1.0469980e+01   5.2741043e+03
 1.0474660e+01   5.2801757e+03
 1.0479340e+01   5.2910507e+03
 1.0484020e+01   5.2892453e+03
 1.0488700e+01   5.2915105e+03
 1.0493380e+01   5.3007444e+03
 1.0498060e+01   5.3096030e+03
 1.0502740e+01   5.3026494e+03
 1.0507420e+01   5.3086913e+03
 1.0512100e+01   5.2856804e+03
 1.0516780e+01   5.2907587e+03
 1.0521460e+01   5.2816116e+03
 1.0526140e+01   5.2738212e+03
 1.0530820e+01   5.2669634e+03
 1.0535500e+01   5.2595358e+03
 1.0540180e+01   5.2511348e+03
 1.0544860e+01   5.2375863e+03
 1.0549540e+01   5.2172413e+03
 1.0554220e+01   5.2256001e+03
 1.0558900e+01   5.2040708e+03
 1.0563580e+01   5.1903623e+03
 1.0568260e+01   5.1832250e+03
 1.0572940e+01   5.1662378e+03
 1.0577620e+01   5.1549358e+03
 1.0582300e+01   5.1374563e+03
 1.0586980e+01   5.1305795e+03
 1.0591660e+01   5.1085750e+03
 1.0596340e+01   5.1085375e+03
 1.0601020e+01   5.0922160e+03
 1.0605700e+01   5.0828137e+03
 1.0610380e+01   5.0813559e+03
 1.0615060e+01   5.0667462e+03
 1.0619740e+01   5.0600114e+03
 1.0624420e+01   5.0566004e+03
 1.0629100e+01   5.0567945e+03
 1.0633780e+01   5.0428696e+03
 1.0638460e+01   5.0399642e+03
 1.0643140e+01   5.0236519e+03
 1.0647820e+01   5.0249607e+03
 1.0652500e+01   5.0174994e+03
 1.0657180e+01   5.0217826e+03
 1.0661860e+01   5.0122454e+03
 1.0666540e+01   5.0277335e+03
 1.0671220e+01   5.0246965e+03
 1.0675900e+01   5.0229793e+03
 1.0680580e+01   5.0312334e+03
 1.0685260e+01   5.0220730e+03
 1.0689940e+01   5.0306197e+03
 1.0694620e+01   5.0176377e+03
 1.0699300e+01   5.0233493e+03
 1.0703980e+01   5.0242588e+03
 1.0708660e+01   5.0358171e+03
 1.0713340e+01   5.0482564e+03
 1.0718020e+01   5.0511941e+03
 1.0722700e+01   5.0607169e+03
 1.0727380e+01   5.0695696e+03
 1.0732060e+01   5.0665621e+03
 1.0736740e+01   5.0895485e+03
 1.0741420e+01   5.0817103e+03
 1.0746100e+01   5.1029853e+03
 1.0750780e+01   5.1060386e+03
 1.0755460e+01   5.1074315e+03
 1.0760140e+01   5.1085992e+03
 1.0764820e+01   5.1202240e+03
 1.0769500e+01   5.1158335e+03
 1.0774180e+01   5.1178344e+03
 1.0778860e+01   5.1238072e+03
 1.0783540e+01   5.1000839e+03
 1.0788220e+01   5.1109649e+03
 1.0792900e+01   5.0970343e+03
 1.0797580e+01   5.1028584e+03
 1.0802260e+01   5.1039601e+03
 1.0806940e+01   5.0913955e+03
 1.0811620e+01   5.0938852e+03
 1.0816300e+01   5.0868953e+03
 1.0820980e+01   5.0801392e+03
 1.0825660e+01   5.0784510e+03
 1.0830340e+01   5.0725828e+03
 1.0835020e+01   5.0734710e+03
 1.0839700e+01   5.0766100e+03
 1.0844380e+01   5.0571871e+03
 1.0849060e+01   5.0601099e+03
 1.0853740e+01   5.0467954e+03
 1.0858420e+01   5.0346349e+03
 1.0863100e+01   5.0312601e+03
 1.0867780e+01   5.0265987e+03
 1.0872460e+01   5.0143298e+03
 1.0877140e+01   5.0033496e+03
 1.0881820e+01   4.9809747e+03
 1.0886500e+01   4.9851534e+03
 1.0891180e+01   4.9702377e+03
 1.0895860e+01   4.9589434e+03
 1.0900540e+01   4.9439075e+03
 1.0905220e+01   4.9345452e+03
 1.0909900e+01   4.9285616e+03
 1.0914580e+01   4.9101437e+03
 1.0919260e+01   4.8979696e+03
 1.0923940e+01   4.8933754e+03
 1.0928620e+01   4.8860094e+03
 1.0933300e+01   4.8726163e+03
 1.0937980e+01   4.8761133e+03
 1.0942660e+01   4.8600401e+03
 1.0947340e+01   4.8562161e+03
 1.0952020e+01   4.8460378e+03
 1.0956700e+01   4.8257542e+03
 1.0961380e+01   4.8423803e+03
 1.0966060e+01   4.8239032e+03
 1.0970740e+01   4.8311402e+03
 1.0975420e+01   4.8169956e+03
 1.0980100e+01   4.8097267e+03
 1.0984780e+01   4.8095655e+03
 1.0989460e+01   4.8066983e+03
 1.0994140e+01   4.7923299e+03
 1.0998820e+01   4.7984127e+03
 1.1003500e+01   4.7968745e+03
 1.1008180e+01   4.7812099e+03
 1.1012860e+01   4.7950423e+03
 1.1017540e+01   4.7773096e+03
 1.1022220e+01   4.7801889e+03
 1.1026900e+01   4.7915380e+03
 1.1031580e+01   4.7895046e+03
 1.1036260e+01   4.7983853e+03
 1.1040940e+01   4.7992688e+03
 1.1045620e+01   4.8004841e+03
 1.1050300e+01   4.8042569e+03
 1.1054980e+01   4.8070653e+03
 1.1059660e+01   4.8159649e+03
 1.1064340e+01   4.8125100e+03
 1.1069020e+01   4.8198274e+03
 1.1073700e+01   4.8262202e+03
 1.1078380e+01   4.8283474e+03
 1.1083060e+01   4.8469878e+03
 1.1087740e+01   4.8603102e+03
 1.1092420e+01   4.8641387e+03
 1.1097100e+01   4.8812133e+03
 1.1101780e+01   4.8945254e+03
 1.1106460e+01   4.9044306e+03
 1.1111140e+01   4.9328396e+03
 1.1115820e+01   4.9391306e+03
 1.1120500e+01   4.9698890e+03
 1.1125180e+01   4.9561072e+03
 1.1129860e+01   4.9780659e+03
 1.1134540e+01   4.9874337e+03
 1.1139220e+01   4.9759509e+03
 1.1143900e+01   4.9935959e+03
 1.1148580e+01   4.9812934e+03
 1.1153260e+01   4.9856054e+03
 1.1157940e+01   4.9881048e+03
 1.1162620e+01   4.9723041e+03
 1.1167300e+01   4.9719288e+03
 1.1171980e+01   4.9603464e+03
 1.1176660e+01   4.9528959e+03
 1.1181340e+01   4.9484294e+03
 1.1186020e+01   4.9224659e+03
 1.1190700e+01   4.9179708e+03
 1.1195380e+01   4.9034488e+03
 1.1200060e+01   4.8823913e+03
 1.1204740e+01   4.8877480e+03
 1.1209420e+01   4.8799716e+03
 1.1214100e+01   4.8725209e+03
 1.1218780e+01   4.8609728e+03
 1.1223460e+01   4.8539613e+03
 1.1228140e+01   4.8595557e+03
 1.1232820e+01   4.8327228e+03
 1.1237500e+01   4.8191580e+03
 1.1242180e+01   4.8114356e+03
 1.1246860e+01   4.8026453e+03
 1.1251540e+01   4.7862431e+03
 1.1256220e+01   4.7816842e+03
 1.1260900e+01   4.7621224e+03
 1.1265580e+01   4.7534480e+03
 1.1270260e+01   4.7430440e+03
 1.1274940e+01   4.7161451e+03
 1.1279620e+01   4.7147020e+03
 1.1284300e+01   4.7029348e+03
 1.1288980e+01   4.6871001e+03
 1.1293660e+01   4.6929381e+03
 1.1298340e+01   4.6624655e+03
 1.1303020e+01   4.6718740e+03
 1.1307700e+01   4.6626080e+03
 1.1312380e+01   4.6469024e+03
 1.1317060e+01   4.6538626e+03
 1.1321740e+01   4.6296003e+03
 1.1326420e+01   4.6369072e+03
 1.1331100e+01   4.6274070e+03
 1.1335780e+01   4.6078978e+03
 1.1340460e+01   4.6111805e+03
 1.1345140e+01   4.6149169e+03
 1.1349820e+01   4.5948489e+03
 1.1354500e+01   4.5900885e+03
 1.1359180e+01   4.5722895e+03
 1.1363860e+01   4.5773700e+03
 1.1368540e+01   4.5607665e+03
 1.1373220e+01   4.5502800e+03
 1.1377900e+01   4.5602771e+03
 1.1382580e+01   4.5444382e+03
 1.1387260e+01   4.5421908e+03
 1.1391940e+01   4.5446722e+03
 1.1396620e+01   4.5275666e+03
 1.1401300e+01   4.5314565e+03
 1.1405980e+01   4.5293193e+03
 1.1410660e+01   4.5223583e+03
 1.1415340e+01   4.5248143e+03
 1.1420020e+01   4.5154911e+03
 1.1424700e+01   4.5134316e+03
 1.1429380e+01   4.5116691e+03
 1.1434060e+01   4.5094736e+03
 1.1438740e+01   4.4998723e+03
 1.1443420e+01   4.5055899e+03
 1.1448100e+01   4.4939555e+03
 1.1452780e+01   4.5017775e+03
 1.1457460e+01   4.4876441e+03
 1.1462140e+01   4.4938005e+03
 1.1466820e+01   4.4938644e+03
 1.1471500e+01   4.4808710e+03
 1.1476180e+01   4.4941888e+03
 1.1480860e+01   4.4762263e+03
 1.1485540e+01   4.4826503e+03
 1.1490220e+01   4.4754559e+03
 1.1494900e+01   4.4702979e+03
 1.1499580e+01   4.4738516e+03
 1.1504260e+01   4.4694905e+03
 1.1508940e+01   4.4574740e+03
 1.1513620e+01   4.4657971e+03
 1.1518300e+01   4.4595761e+03
 1.1522980e+01   4.4534610e+03
 1.1527660e+01   4.4514238e+03
 1.1532340e+01   4.4371448e+03
 1.1537020e+01   4.4468471e+03
 1.1541700e+01   4.4269578e+03
 1.1546380e+01   4.4284990e+03
 1.1551060e+01   4.4261365e+03
 1.1555740e+01   4.4166978e+03
 1.1560420e+01   4.4316811e+03
 1.1565100e+01   4.4269191e+03
 1.1569780e+01   4.4094620e+03
 1.1574460e+01   4.4174251e+03
 1.1579140e+01   4.4045536e+03
 1.1583820e+01   4.4004810e+03
 1.1588500e+01   4.4008642e+03
 1.1593180e+01   4.4023611e+03
 1.1597860e+01   4.4038132e+03
 1.1602540e+01   4.4017159e+03
 1.1607220e+01   4.3946664e+03
 1.1611900e+01   4.3975217e+03
 1.1616580e+01   4.3909698e+03
 1.1621260e+01   4.3955560e+03
 1.1625940e+01   4.3923703e+03
 1.1630620e+01   4.3911396e+03
 1.1635300e+01   4.3938633e+03
 1.1639980e+01   4.3888315e+03
 1.1644660e+01   4.3754698e+03
 1.1649340e+01   4.3828230e+03
 1.1654020e+01   4.3826517e+03
 1.1658700e+01   4.3730833e+03
 1.1663380e+01   4.3703961e+03
 1.1668060e+01   4.3618722e+03
 1.1672740e+01   4.3666826e+03
 1.1677420e+01   4.3431868e+03
 1.1682100e+01   4.3585943e+03
 1.1686780e+01   4.3480456e+03
 1.1691460e+01   4.3407368e+03
 1.1696140e+01   4.3556398e+03
 1.1700820e+01   4.3468835e+03
 1.1705500e+01   4.3417041e+03
 1.1710180e+01   4.3409931e+03
 1.1714860e+01   4.3321754e+03
 1.1719540e+01   4.3379857e+03
 1.1724220e+01   4.3497149e+03
 1.1728900e+01   4.3298159e+03
 1.1733580e+01   4.3451868e+03
 1.1738260e+01   4.3366567e+03
 1.1742940e+01   4.3408106e+03
 1.1747620e+01   4.3284549e+03
 1.1752300e+01   4.3284021e+03
 1.1756980e+01   4.3340704e+03
 1.1761660e+01   4.3390437e+03
 1.1766340e+01   4.3465428e+03
 1.1771020e+01   4.3356400e+03
 1.1775700e+01   4.3388595e+03
 1.1780380e+01   4.3386923e+03
 1.1785060e+01   4.3372282e+03
 1.1789740e+01   4.3366510e+03
 1.1794420e+01   4.3474656e+03
 1.1799100e+01   4.3406712e+03
 1.1803780e+01   4.3416843e+03
 1.1808460e+01   4.3421232e+03
 1.1813140e+01   4.3405919e+03
 1.1817820e+01   4.3619485e+03
 1.1822500e+01   4.3563040e+03
 1.1827180e+01   4.3664088e+03
 1.1831860e+01   4.3729695e+03
 1.1836540e+01   4.3700413e+03
 1.1841220e+01   4.3709988e+03
 1.1845900e+01   4.3838734e+03
 1.1850580e+01   4.3896475e+03
 1.1855260e+01   4.4051719e+03
 1.1859940e+01   4.4181957e+03
 1.1864620e+01   4.4416909e+03
 1.1869300e+01   4.4633141e+03
 1.1873980e+01   4.4918341e+03
 1.1878660e+01   4.5106948e+03
 1.1883340e+01   4.5271719e+03
 1.1888020e+01   4.5441088e+03
 1.1892700e+01   4.5787752e+03
 1.1897380e+01   4.6165338e+03
 1.1902060e+01   4.6384783e+03
 1.1906740e+01   4.6694545e+03
 1.1911420e+01   4.6390301e+03
 1.1916100e+01   4.6443958e+03
 1.1920780e+01   4.6084344e+03
 1.1925460e+01   4.5949955e+03
 1.1930140e+01   4.5923137e+03
 1.1934820e+01   4.5753189e+03
 1.1939500e+01   4.5767158e+03
 1.1944180e+01   4.5514320e+03
 1.1948860e+01   4.5386410e+03
 1.1953540e+01   4.5358571e+03
 1.1958220e+01   4.5388529e+03
 1.1962900e+01   4.5373378e+03
 1.1967580e+01   4.5503933e+03
 1.1972260e+01   4.5384149e+03
 1.1976940e+01   4.5552895e+03
 1.1981620e+01   4.5546324e+03
 1.1986300e+01   4.5437996e+03
 1.1990980e+01   4.5553696e+03
 1.1995660e+01   4.5480269e+03
 1.2000340e+01   4.5489828e+03
 1.2005020e+01   4.5475689e+03
 1.2009700e+01   4.5378717e+03
 1.2014380e+01   4.5343803e+03
 1.2019060e+01   4.5354052e+03
 1.2023740e+01   4.5098467e+03
 1.2028420e+01   4.5200827e+03
 1.2033100e+01   4.5094983e+03
 1.2037780e+01   4.4987346e+03
 1.2042460e+01   4.4899560e+03
 1.2047140e+01   4.4688148e+03
 1.2051820e+01   4.4739736e+03
 1.2056500e+01   4.4692714e+03
 1.2061180e+01   4.4644790e+03
 1.2065860e+01   4.4533659e+03
 1.2070540e+01   4.4424086e+03
 1.2075220e+01   4.4305819e+03
 1.2079900e+01   4.4324085e+03
 1.2084580e+01   4.4260042e+03
 1.2089260e+01   4.4226549e+03
 1.2093940e+01   4.4085373e+03
 1.2098620e+01   4.4120912e+03
 1.2103300e+01   4.4036083e+03
 1.2107980e+01   4.3856715e+03
 1.2112660e+01   4.3872677e+03
 1.2117340e+01   4.3614910e+03
 1.2122020e+01   4.3625896e+03
 1.2126700e+01   4.3489684e+03
 1.2131380e+01   4.3321095e+03
 1.2136060e+01   4.3185482e+03
 1.2140740e+01   4.3105214e+03
 1.2145420e+01   4.2941435e+03
 1.2150100e+01   4.2749048e+03
 1.2154780e+01   4.2587532e+03
 1.2159460e+01   4.2500150e+03
 1.2164140e+01   4.2372859e+03
 1.2168820e+01   4.2181057e+03
 1.2173500e+01   4.2128259e+03
 1.2178180e+01   4.1948143e+03
 1.2182860e+01   4.1800214e+03
 1.2187540e+01   4.1781441e+03
 1.2192220e+01   4.1685291e+03
 1.2196900e+01   4.1564974e+03
 1.2201580e+01   4.1480459e+03
 1.2206260e+01   4.1358957e+03
 1.2210940e+01   4.1500335e+03
 1.2215620e+01   4.1308759e+03
 1.2220300e+01   4.1266231e+03
 1.2224980e+01   4.1243495e+03
 1.2229660e+01   4.1147520e+03
 1.2234340e+01   4.1142601e+03
 1.2239020e+01   4.1011066e+03
 1.2243700e+01   4.1033392e+03
 1.2248380e+01   4.0999399e+03
 1.2253060e+01   4.1074812e+03
 1.2257740e+01   4.0992424e+03
 1.2262420e+01   4.1055180e+03
 1.2267100e+01   4.0972296e+03
 1.2271780e+01   4.1011416e+03
 1.2276460e+01   4.0902225e+03
 1.2281140e+01   4.0822211e+03
 1.2285820e+01   4.0860167e+03
 1.2290500e+01   4.0800075e+03
 1.2295180e+01   4.0840058e+03
 1.2299860e+01   4.0874525e+03
 1.2304540e+01   4.0838015e+03
 1.2309220e+01   4.0993092e+03
 1.2313900e+01   4.0925337e+03
 1.2318580e+01   4.0825879e+03
 1.2323260e+01   4.0900181e+03
 1.2327940e+01   4.0827961e+03
 1.2332620e+01   4.0923738e+03
 1.2337300e+01   4.0821528e+03
 1.2341980e+01   4.0963417e+03
 1.2346660e+01   4.0927368e+03
 1.2351340e+01   4.0879524e+03
 1.2356020e+01   4.1027448e+03
 1.2360700e+01   4.0986141e+03
 1.2365380e+01   4.1043450e+03
 1.2370060e+01   4.1066825e+03
 1.2374740e+01   4.1119817e+03
 1.2379420e+01   4.1138393e+03
 1.2384100e+01   4.1256414e+03
 1.2388780e+01   4.1180450e+03
 1.2393460e+01   4.1321426e+03
 1.2398140e+01   4.1277853e+03
 1.2402820e+01   4.1233306e+03
 1.2407500e+01   4.1386942e+03
 1.2412180e+01   4.1276930e+03
 1.2416860e+01   4.1340455e+03
 1.2421540e+01   4.1363412e+03
 1.2426220e+01   4.1379534e+03
 1.2430900e+01   4.1428491e+03
 1.2435580e+01   4.1383315e+03
 1.2440260e+01   4.1484160e+03
 1.2444940e+01   4.1368298e+03
 1.2449620e+01   4.1440264e+03
 1.2454300e+01   4.1388293e+03
 1.2458980e+01   4.1441809e+03
 1.2463660e+01   4.1321102e+03
 1.2468340e+01   4.1454534e+03
 1.2473020e+01   4.1532679e+03
 1.2477700e+01   4.1521483e+03
 1.2482380e+01   4.1489927e+03
 1.2487060e+01   4.1430855e+03
 1.2491740e+01   4.1460878e+03
 1.2496420e+01   4.1441761e+03
 1.2501100e+01   4.1364710e+03
 1.2505780e+01   4.1383243e+03
 1.2510460e+01   4.1350146e+03
 1.2515140e+01   4.1311486e+03
 1.2519820e+01   4.1261684e+03
 1.2524500e+01   4.1242686e+03
 1.2529180e+01   4.1252777e+03
 1.2533860e+01   4.1151506e+03
 1.2538540e+01   4.1136299e+03
 1.2543220e+01   4.1141232e+03
 1.2547900e+01   4.1167561e+03
 1.2552580e+01   4.1159044e+03
 1.2557260e+01   4.1109058e+03
 1.2561940e+01   4.1173175e+03
 1.2566620e+01   4.1183322e+03
 1.2571300e+01   4.1315745e+03
 1.2575980e+01   4.1277224e+03
 1.2580660e+01   4.1391708e+03
 1.2585340e+01   4.1290413e+03
 1.2590020e+01   4.1479211e+03
 1.2594700e+01   4.1479782e+03
 1.2599380e+01   4.1493777e+03
 1.2604060e+01   4.1539123e+03
 1.2608740e+01   4.1608709e+03
 1.2613420e+01   4.1665175e+03
 1.2618100e+01   4.1680598e+03
 1.2622780e+01   4.1763321e+03
 1.2627460e+01   4.1781569e+03
 1.2632140e+01   4.1913067e+03
 1.2636820e+01   4.1882354e+03
 1.2641500e+01   4.1932874e+03
 1.2646180e+01   4.1998523e+03
 1.2650860e+01   4.2073251e+03
 1.2655540e+01   4.2060271e+03
 1.2660220e+01   4.2141803e+03
 1.2664900e+01   4.2135617e+03
 1.2669580e+01   4.2215943e+03
 1.2674260e+01   4.2206774e+03
 1.2678940e+01   4.2290568e+03
 1.2683620e+01   4.2237436e+03
 1.2688300e+01   4.2297622e+03
 1.2692980e+01   4.2356726e+03
 1.2697660e+01   4.2304190e+03
